Ewe/V	<I>/mA	time/s	cycle number	
6.9420516E-002	9.091040295748656E-003	3.808299903794250E+000	1.000000000000000E+000
8.9399427E-002	8.190049919856224E-003	7.806399802793749E+000	1.000000000000000E+000
1.0939639E-001	7.064799557805854E-003	1.180459970179072E+001	1.000000000000000E+000
1.2937024E-001	6.061017011788215E-003	1.580269960079022E+001	1.000000000000000E+000
1.4937314E-001	5.357102480105362E-003	1.980079949978972E+001	1.000000000000000E+000
1.6933960E-001	5.024210513395706E-003	2.379899939878669E+001	1.000000000000000E+000
1.8935800E-001	4.911384965376769E-003	2.779709929778619E+001	1.000000000000000E+000
2.0934540E-001	4.847342208445744E-003	3.179519919678569E+001	1.000000000000000E+000
2.2935085E-001	4.743213904011834E-003	3.579339909578266E+001	1.000000000000000E+000
2.4934617E-001	4.597847263667382E-003	3.979149899478216E+001	1.000000000000000E+000
2.6933315E-001	4.443983586996370E-003	4.378969889377913E+001	1.000000000000000E+000
2.8952125E-001	4.295290575834984E-003	4.782779879176815E+001	1.000000000000000E+000
3.0946699E-001	4.182646166306273E-003	5.182589869076764E+001	1.000000000000000E+000
3.2948187E-001	4.098800477438807E-003	5.582409858976462E+001	1.000000000000000E+000
3.4947738E-001	4.042291554174651E-003	5.982219848876412E+001	1.000000000000000E+000
3.6945927E-001	4.013581571171571E-003	6.382039838776109E+001	1.000000000000000E+000
3.8943809E-001	4.009616168725950E-003	6.781849828676059E+001	1.000000000000000E+000
4.0944281E-001	4.034346866529911E-003	7.181659818576009E+001	1.000000000000000E+000
4.2945081E-001	4.086699741680015E-003	7.581479808475706E+001	1.000000000000000E+000
4.4942760E-001	4.163909398120627E-003	7.981289798375656E+001	1.000000000000000E+000
4.3144396E-001	3.389062091131118E-003	8.363159788728808E+001	1.000000000000000E+000
4.1143933E-001	2.904520658365668E-003	8.762979778628505E+001	1.000000000000000E+000
3.9146465E-001	2.520033599404540E-003	9.162789768528455E+001	1.000000000000000E+000
3.7145743E-001	2.194964948261803E-003	9.562599758428405E+001	1.000000000000000E+000
3.5148275E-001	1.912890779207040E-003	9.962419748328102E+001	1.000000000000000E+000
3.3148444E-001	1.656644954880646E-003	1.036222973822805E+002	1.000000000000000E+000
3.1151897E-001	1.420400784338411E-003	1.076203972812800E+002	1.000000000000000E+000
2.9153746E-001	1.190396966338748E-003	1.116185971802770E+002	1.000000000000000E+000
2.7155769E-001	9.526582658246352E-004	1.156166970792765E+002	1.000000000000000E+000
2.5154865E-001	6.792760547480216E-004	1.196148969782735E+002	1.000000000000000E+000
2.3155886E-001	3.290790393042121E-004	1.236129968772730E+002	1.000000000000000E+000
2.1136560E-001	-1.721651674549307E-004	1.276510967752620E+002	1.000000000000000E+000
1.9139034E-001	-7.686657660294499E-004	1.316492966742589E+002	1.000000000000000E+000
1.7126289E-001	-1.367123895852066E-003	1.356673965727532E+002	1.000000000000000E+000
1.5127759E-001	-1.819336151812029E-003	1.396655964717502E+002	1.000000000000000E+000
1.3130349E-001	-2.137320141462236E-003	1.436636963707497E+002	1.000000000000000E+000
1.1128576E-001	-2.734279336923599E-003	1.476617962697492E+002	1.000000000000000E+000
9.1329314E-002	-3.715354802858825E-003	1.516599961687461E+002	1.000000000000000E+000
7.1331657E-002	-4.938922331827593E-003	1.556580960677456E+002	1.000000000000000E+000
5.1323492E-002	-6.206819239004402E-003	1.596561959667451E+002	1.000000000000000E+000
3.1346451E-002	-7.381866360954364E-003	1.636543958657421E+002	1.000000000000000E+000
1.1337966E-002	-8.495614119258824E-003	1.676524957647416E+002	1.000000000000000E+000
-8.6526275E-003	-9.412620209381245E-003	1.716506956637386E+002	1.000000000000000E+000
-2.8633870E-002	-1.028224524954499E-002	1.756487955627381E+002	1.000000000000000E+000
-4.8701063E-002	-1.048732160419896E-002	1.796668954612323E+002	1.000000000000000E+000
-6.8728909E-002	-1.132710772594359E-002	1.836650953602293E+002	1.000000000000000E+000
-8.8721953E-002	-1.198039771802877E-002	1.876631952592288E+002	1.000000000000000E+000
-1.0867419E-001	-1.265477816798133E-002	1.916613951582258E+002	1.000000000000000E+000
-1.2867771E-001	-1.344502056062525E-002	1.956594950572253E+002	1.000000000000000E+000
-1.4867622E-001	-1.427062824231207E-002	1.996575949562248E+002	1.000000000000000E+000
-1.6867319E-001	-1.494978889036300E-002	2.036557948552218E+002	1.000000000000000E+000
-1.8867268E-001	-1.555313700488861E-002	2.076538947542213E+002	1.000000000000000E+000
-2.0867375E-001	-1.600035594429311E-002	2.116520946532182E+002	1.000000000000000E+000
-2.2867113E-001	-1.653419572148840E-002	2.156501945522177E+002	1.000000000000000E+000
-2.4866091E-001	-1.709119661258701E-002	2.196483944512147E+002	1.000000000000000E+000
-2.6865700E-001	-1.786201123109665E-002	2.236464943502142E+002	1.000000000000000E+000
-2.8863299E-001	-1.882331980954091E-002	2.276445942492137E+002	1.000000000000000E+000
-3.0858186E-001	-1.992383222409810E-002	2.316427941482107E+002	1.000000000000000E+000
-3.2860065E-001	-2.092960694062607E-002	2.356408940472102E+002	1.000000000000000E+000
-3.4858575E-001	-2.171103410275510E-002	2.396389939462097E+002	1.000000000000000E+000
-3.6856258E-001	-2.220650176679217E-002	2.436371938452066E+002	1.000000000000000E+000
-3.8858649E-001	-2.256954617458665E-002	2.476352937442061E+002	1.000000000000000E+000
-4.0855938E-001	-2.289532428049146E-002	2.516334936432031E+002	1.000000000000000E+000
-4.2854360E-001	-2.328842255150143E-002	2.556315935422026E+002	1.000000000000000E+000
-4.4852826E-001	-2.366993844152210E-002	2.596296934412021E+002	1.000000000000000E+000
-4.6852738E-001	-2.405576676492516E-002	2.636278933401991E+002	1.000000000000000E+000
-4.8850796E-001	-2.432385142277521E-002	2.676259932391986E+002	1.000000000000000E+000
-5.0850457E-001	-2.456191663042684E-002	2.716241931381956E+002	1.000000000000000E+000
-5.2847385E-001	-2.455329940110002E-002	2.756222930371951E+002	1.000000000000000E+000
-5.4845464E-001	-2.460594337418798E-002	2.796203929361945E+002	1.000000000000000E+000
-5.6844568E-001	-2.451740591147959E-002	2.836185928351915E+002	1.000000000000000E+000
-5.8844590E-001	-2.434452156124911E-002	2.876166927341910E+002	1.000000000000000E+000
-6.0843861E-001	-2.434681663599553E-002	2.916148926331880E+002	1.000000000000000E+000
-6.2844551E-001	-2.431676075611655E-002	2.956129925321875E+002	1.000000000000000E+000
-6.4842075E-001	-2.439181191414869E-002	2.996111924311845E+002	1.000000000000000E+000
-6.6842300E-001	-2.456433729834653E-002	3.036092923301840E+002	1.000000000000000E+000
-6.8844259E-001	-2.482107103775340E-002	3.076073922291835E+002	1.000000000000000E+000
-7.0840079E-001	-2.550125727773167E-002	3.116055921281804E+002	1.000000000000000E+000
-7.2837305E-001	-2.668830171334557E-002	3.156036920271799E+002	1.000000000000000E+000
-7.4834931E-001	-2.837364678297505E-002	3.196017919261794E+002	1.000000000000000E+000
-7.6836944E-001	-3.101194617808359E-002	3.235999918251764E+002	1.000000000000000E+000
-7.8833681E-001	-3.471654686719095E-002	3.275980917241759E+002	1.000000000000000E+000
-8.0834907E-001	-3.994537958007893E-002	3.315962916231729E+002	1.000000000000000E+000
-8.2831317E-001	-4.717939216041689E-002	3.355943915221724E+002	1.000000000000000E+000
-8.4829819E-001	-5.669545108619267E-002	3.395925914211693E+002	1.000000000000000E+000
-8.6830407E-001	-6.771041264101441E-002	3.435906913201688E+002	1.000000000000000E+000
-8.8828403E-001	-7.728619013106242E-002	3.475887912191683E+002	1.000000000000000E+000
-9.0828568E-001	-7.747469144786756E-002	3.515869911181653E+002	1.000000000000000E+000
-9.2824656E-001	-6.556005606382631E-002	3.555850910171648E+002	1.000000000000000E+000
-9.4825900E-001	-5.064714899499956E-002	3.595831909161643E+002	1.000000000000000E+000
-9.6824294E-001	-3.876071013594698E-002	3.635813908151613E+002	1.000000000000000E+000
-9.8827475E-001	-3.087236833926388E-002	3.675794907141608E+002	1.000000000000000E+000
-1.0082438E+000	-2.597170201400156E-002	3.715776906131578E+002	1.000000000000000E+000
-1.0282418E+000	-2.297238750283465E-002	3.755757905121573E+002	1.000000000000000E+000
-1.0482320E+000	-2.108933042989337E-002	3.795739904111542E+002	1.000000000000000E+000
-1.0682458E+000	-1.980983716648110E-002	3.835720903101537E+002	1.000000000000000E+000
-1.0882423E+000	-1.885264713418530E-002	3.875701902091532E+002	1.000000000000000E+000
-1.1082261E+000	-1.805484241646521E-002	3.915683901081502E+002	1.000000000000000E+000
-1.1281930E+000	-1.730179272351928E-002	3.955664900071497E+002	1.000000000000000E+000
-1.1481752E+000	-1.661574846999975E-002	3.995645899061492E+002	1.000000000000000E+000
-1.1681683E+000	-1.604168318542534E-002	4.035627898051462E+002	1.000000000000000E+000
-1.1881524E+000	-1.563257123048648E-002	4.075608897041457E+002	1.000000000000000E+000
-1.2081300E+000	-1.535807567505312E-002	4.115590896031426E+002	1.000000000000000E+000
-1.2281135E+000	-1.520106123043379E-002	4.155571895021421E+002	1.000000000000000E+000
-1.2481259E+000	-1.514122701622753E-002	4.195553894011391E+002	1.000000000000000E+000
-1.2680887E+000	-1.513038425872942E-002	4.235534893001386E+002	1.000000000000000E+000
-1.2881117E+000	-1.516717457441635E-002	4.275515891991381E+002	1.000000000000000E+000
-1.3080810E+000	-1.522329578410028E-002	4.315497890981351E+002	1.000000000000000E+000
-1.3280927E+000	-1.531812680296940E-002	4.355478889971346E+002	1.000000000000000E+000
-1.3480461E+000	-1.545397149945710E-002	4.395459888961341E+002	1.000000000000000E+000
-1.3680160E+000	-1.561207435903716E-002	4.435441887951310E+002	1.000000000000000E+000
-1.3880154E+000	-1.581000480564354E-002	4.475422886941305E+002	1.000000000000000E+000
-1.4079928E+000	-1.605469412994165E-002	4.515404885931275E+002	1.000000000000000E+000
-1.4280268E+000	-1.635355535364566E-002	4.555385884921270E+002	1.000000000000000E+000
-1.4480191E+000	-1.674516373955431E-002	4.595367883911240E+002	1.000000000000000E+000
-1.4680071E+000	-1.726018822411268E-002	4.635348882901235E+002	1.000000000000000E+000
-1.4879875E+000	-1.794400314635192E-002	4.675329881891230E+002	1.000000000000000E+000
-1.5079747E+000	-1.875606596775040E-002	4.715311880881200E+002	1.000000000000000E+000
-1.5279486E+000	-1.987054989596976E-002	4.755292879871195E+002	1.000000000000000E+000
-1.5479192E+000	-2.141366733775038E-002	4.795273878861190E+002	1.000000000000000E+000
-1.5333542E+000	-1.909813246412032E-002	4.832261877926794E+002	1.000000000000000E+000
-1.5133623E+000	-1.733693113233196E-002	4.872242876916789E+002	1.000000000000000E+000
-1.4933827E+000	-1.606661142874299E-002	4.912223875906784E+002	1.000000000000000E+000
-1.4733912E+000	-1.507135281165585E-002	4.952205874896754E+002	1.000000000000000E+000
-1.4533974E+000	-1.428232570302590E-002	4.992186873886749E+002	1.000000000000000E+000
-1.4333872E+000	-1.361940447132538E-002	5.032168872876719E+002	1.000000000000000E+000
-1.4134058E+000	-1.308323440494124E-002	5.072149871866714E+002	1.000000000000000E+000
-1.3934120E+000	-1.262786287694007E-002	5.112131870856683E+002	1.000000000000000E+000
-1.3733994E+000	-1.223207080619243E-002	5.152112869846678E+002	1.000000000000000E+000
-1.3534330E+000	-1.188852902547488E-002	5.192093868836673E+002	1.000000000000000E+000
-1.3334401E+000	-1.158176628322881E-002	5.232075867826643E+002	1.000000000000000E+000
-1.3134854E+000	-1.128973657932256E-002	5.272056866816638E+002	1.000000000000000E+000
-1.2934657E+000	-1.100409416025487E-002	5.312038865806608E+002	1.000000000000000E+000
-1.2734950E+000	-1.073926965475862E-002	5.352019864796603E+002	1.000000000000000E+000
-1.2535006E+000	-1.048465882618330E-002	5.392000863786598E+002	1.000000000000000E+000
-1.2334946E+000	-1.025138447516111E-002	5.431982862776567E+002	1.000000000000000E+000
-1.2135150E+000	-1.001896877504367E-002	5.471963861766562E+002	1.000000000000000E+000
-1.1935356E+000	-9.783992591926995E-003	5.511945860756532E+002	1.000000000000000E+000
-1.1735331E+000	-9.529835764429839E-003	5.551926859746527E+002	1.000000000000000E+000
-1.1535419E+000	-9.245573606367408E-003	5.591907858736522E+002	1.000000000000000E+000
-1.1335386E+000	-8.948251647270734E-003	5.631889857726492E+002	1.000000000000000E+000
-1.1136061E+000	-8.630455397238689E-003	5.671870856716487E+002	1.000000000000000E+000
-1.0936087E+000	-8.273780611173009E-003	5.711851855706482E+002	1.000000000000000E+000
-1.0736281E+000	-7.873443101494210E-003	5.751833854696451E+002	1.000000000000000E+000
-1.0536159E+000	-7.331873925617294E-003	5.791815853686421E+002	1.000000000000000E+000
-1.0336232E+000	-6.511464520263383E-003	5.831796852676416E+002	1.000000000000000E+000
-1.0136030E+000	-5.200068791754095E-003	5.871777851666411E+002	1.000000000000000E+000
-9.9340868E-001	-2.979737542732119E-003	5.912159850646276E+002	1.000000000000000E+000
-9.7342855E-001	9.206067348960026E-004	5.952140849636271E+002	1.000000000000000E+000
-9.5344251E-001	7.932850266814687E-003	5.992121848626266E+002	1.000000000000000E+000
-9.3335068E-001	2.044709448482479E-002	6.032303847611183E+002	1.000000000000000E+000
-9.1340172E-001	4.202086127783482E-002	6.072284846601178E+002	1.000000000000000E+000
-8.9343423E-001	7.051360023169995E-002	6.112265845591173E+002	1.000000000000000E+000
-8.7342930E-001	8.281354862054147E-002	6.152247844581143E+002	1.000000000000000E+000
-8.5342366E-001	6.281712047672450E-002	6.192228843571138E+002	1.000000000000000E+000
-8.3345276E-001	4.587465296586124E-002	6.232210842561108E+002	1.000000000000000E+000
-8.1342649E-001	3.351487334930625E-002	6.272191841551103E+002	1.000000000000000E+000
-7.9346395E-001	2.511776317504411E-002	6.312173840541072E+002	1.000000000000000E+000
-7.7346665E-001	2.004271895543158E-002	6.352154839531067E+002	1.000000000000000E+000
-7.5343686E-001	1.730066323689819E-002	6.392135838521062E+002	1.000000000000000E+000
-7.3346579E-001	1.571710254862915E-002	6.432117837511032E+002	1.000000000000000E+000
-7.1347189E-001	1.498366329084123E-002	6.472098836501027E+002	1.000000000000000E+000
-6.9351399E-001	1.503849997765846E-002	6.512079835491022E+002	1.000000000000000E+000
-6.7350769E-001	1.529153214309303E-002	6.552061834480992E+002	1.000000000000000E+000
-6.5351450E-001	1.567752107904076E-002	6.592042833470987E+002	1.000000000000000E+000
-6.3351965E-001	1.610813659947700E-002	6.632024832460957E+002	1.000000000000000E+000
-6.1352819E-001	1.658996434638371E-002	6.672005831450952E+002	1.000000000000000E+000
-5.9351224E-001	1.722595855940863E-002	6.711986830440947E+002	1.000000000000000E+000
-5.7352358E-001	1.811146574566375E-002	6.751968829430916E+002	1.000000000000000E+000
-5.5353302E-001	1.883099663236054E-002	6.791949828420911E+002	1.000000000000000E+000
-5.3358573E-001	1.956626564085315E-002	6.831931827410881E+002	1.000000000000000E+000
-5.1355451E-001	2.015196348359490E-002	6.871912826400876E+002	1.000000000000000E+000
-4.9360424E-001	2.034932595364597E-002	6.911893825390871E+002	1.000000000000000E+000
-4.7363332E-001	2.052018648399415E-002	6.951875824380841E+002	1.000000000000000E+000
-4.5363414E-001	2.060473562549051E-002	6.991856823370836E+002	1.000000000000000E+000
-4.3362534E-001	2.083883980052886E-002	7.031838822360805E+002	1.000000000000000E+000
-4.1363922E-001	2.111007970501189E-002	7.071819821350800E+002	1.000000000000000E+000
-3.9363739E-001	2.128812270157154E-002	7.111801820340770E+002	1.000000000000000E+000
-3.7367588E-001	2.152625532377778E-002	7.151782819330765E+002	1.000000000000000E+000
-3.5367736E-001	2.167665584067248E-002	7.191763818320760E+002	1.000000000000000E+000
-3.3367801E-001	2.163543317811728E-002	7.231745817310730E+002	1.000000000000000E+000
-3.1368995E-001	2.134700801726847E-002	7.271726816300725E+002	1.000000000000000E+000
-2.9371932E-001	2.062171366215690E-002	7.311707815290720E+002	1.000000000000000E+000
-2.7372167E-001	1.978995068982892E-002	7.351689814280689E+002	1.000000000000000E+000
-2.5373715E-001	1.874342061126716E-002	7.391670813270684E+002	1.000000000000000E+000
-2.3374072E-001	1.816749434676840E-002	7.431652812260654E+002	1.000000000000000E+000
-2.1376465E-001	1.789094908218383E-002	7.471633811250649E+002	1.000000000000000E+000
-1.9374010E-001	1.769797704929635E-002	7.511615810240619E+002	1.000000000000000E+000
-1.7374448E-001	1.746881331883876E-002	7.551596809230614E+002	1.000000000000000E+000
-1.5373257E-001	1.721480097030367E-002	7.591577808220609E+002	1.000000000000000E+000
-1.3372433E-001	1.713198441573864E-002	7.631559807210579E+002	1.000000000000000E+000
-1.1374378E-001	1.703642126631302E-002	7.671540806200574E+002	1.000000000000000E+000
-9.3786374E-002	1.682390522668309E-002	7.711521805190569E+002	1.000000000000000E+000
-7.3805727E-002	1.647230796925113E-002	7.751503804180538E+002	1.000000000000000E+000
-5.3818747E-002	1.619772076296715E-002	7.791484803170533E+002	1.000000000000000E+000
-3.3829056E-002	1.588716153591334E-002	7.831466802160503E+002	1.000000000000000E+000
-1.3837491E-002	1.548177749644486E-002	7.871447801150498E+002	1.000000000000000E+000
6.1756084E-003	1.487573154934296E-002	7.911429800140468E+002	1.000000000000000E+000
2.6175503E-002	1.415613806495064E-002	7.951410799130463E+002	1.000000000000000E+000
4.6159156E-002	1.328128147099472E-002	7.991391798120458E+002	1.000000000000000E+000
6.4666778E-002	1.218192040070437E-002	8.028374797186189E+002	2.000000000000000E+000
8.4631763E-002	1.082222525284059E-002	8.068355796176184E+002	2.000000000000000E+000
1.0461559E-001	9.257033410273084E-003	8.108337795166153E+002	2.000000000000000E+000
1.2460023E-001	7.837374553572002E-003	8.148318794156148E+002	2.000000000000000E+000
1.4459524E-001	6.655629073024819E-003	8.188300793146118E+002	2.000000000000000E+000
1.6459802E-001	5.900551253461672E-003	8.228281792136113E+002	2.000000000000000E+000
1.8458524E-001	5.497678379849519E-003	8.268263791126083E+002	2.000000000000000E+000
2.0459886E-001	5.291056854446315E-003	8.308244790116078E+002	2.000000000000000E+000
2.2460526E-001	5.134611039503266E-003	8.348225789106073E+002	2.000000000000000E+000
2.4456850E-001	4.973490767420097E-003	8.388207788096042E+002	2.000000000000000E+000
2.6455951E-001	4.809458678615056E-003	8.428188787086037E+002	2.000000000000000E+000
2.8454316E-001	4.650102911595067E-003	8.468169786076032E+002	2.000000000000000E+000
3.0455944E-001	4.505480157839437E-003	8.508151785066002E+002	2.000000000000000E+000
3.2468173E-001	4.386232542676394E-003	8.548532784045892E+002	2.000000000000000E+000
3.4466925E-001	4.285205946078341E-003	8.588514783035862E+002	2.000000000000000E+000
3.6466151E-001	4.206365578267549E-003	8.628495782025857E+002	2.000000000000000E+000
3.8467458E-001	4.156192900935510E-003	8.668476781015852E+002	2.000000000000000E+000
4.0466914E-001	4.137656051423841E-003	8.708458780005822E+002	2.000000000000000E+000
4.2467657E-001	4.147714112812458E-003	8.748439778995817E+002	2.000000000000000E+000
4.4464618E-001	4.179393733633019E-003	8.788421777985786E+002	2.000000000000000E+000
4.3643036E-001	3.595824498046976E-003	8.826208777031206E+002	2.000000000000000E+000
4.1643670E-001	3.094844688329962E-003	8.866189776021201E+002	2.000000000000000E+000
3.9646685E-001	2.705567977675623E-003	8.906171775011171E+002	2.000000000000000E+000
3.7646899E-001	2.381616714347636E-003	8.946152774001166E+002	2.000000000000000E+000
3.5649711E-001	2.100071819353806E-003	8.986133772991161E+002	2.000000000000000E+000
3.3648020E-001	1.847167942965855E-003	9.026115771981131E+002	2.000000000000000E+000
3.1648362E-001	1.612522923495334E-003	9.066096770971126E+002	2.000000000000000E+000
2.9652703E-001	1.377777160736088E-003	9.106077769961121E+002	2.000000000000000E+000
2.7656713E-001	1.134098743841808E-003	9.146059768951091E+002	2.000000000000000E+000
2.5653598E-001	8.637666322270400E-004	9.186040767941086E+002	2.000000000000000E+000
2.3655528E-001	5.468856650731654E-004	9.226022766931055E+002	2.000000000000000E+000
2.1655183E-001	1.374039995234825E-004	9.266003765921050E+002	2.000000000000000E+000
1.9656546E-001	-3.837553321176107E-004	9.305985764911020E+002	2.000000000000000E+000
1.7656367E-001	-9.504186225145136E-004	9.345966763901015E+002	2.000000000000000E+000
1.5655859E-001	-1.399838323105342E-003	9.385947762891010E+002	2.000000000000000E+000
1.3657157E-001	-1.730917997385950E-003	9.425929761880980E+002	2.000000000000000E+000
1.1657666E-001	-2.311524666538098E-003	9.465910760870975E+002	2.000000000000000E+000
9.6593127E-002	-3.285963961647400E-003	9.505891759860970E+002	2.000000000000000E+000
7.6617569E-002	-4.482017490667539E-003	9.545873758850939E+002	2.000000000000000E+000
5.6630284E-002	-5.790469950050295E-003	9.585854757840934E+002	2.000000000000000E+000
3.6643036E-002	-7.024807093339178E-003	9.625836756830904E+002	2.000000000000000E+000
1.6634293E-002	-8.169257376911127E-003	9.665817755820899E+002	2.000000000000000E+000
-3.3648009E-003	-9.178237274818174E-003	9.705799754810869E+002	2.000000000000000E+000
-2.3332454E-002	-1.016566452719501E-002	9.745780753800864E+002	2.000000000000000E+000
-4.3452732E-002	-1.044601555744741E-002	9.785961752785806E+002	2.000000000000000E+000
-6.3474953E-002	-1.136190200260417E-002	9.825943751775776E+002	2.000000000000000E+000
-8.3430618E-002	-1.206222162502993E-002	9.865924750765771E+002	2.000000000000000E+000
-1.0340402E-001	-1.272497648548002E-002	9.905905749755766E+002	2.000000000000000E+000
-1.2336345E-001	-1.345955662082457E-002	9.945887748745736E+002	2.000000000000000E+000
-1.4339095E-001	-1.414412515150140E-002	9.985868747735731E+002	2.000000000000000E+000
-1.6335614E-001	-1.470646758825384E-002	1.002585074672570E+003	2.000000000000000E+000
-1.8337603E-001	-1.504102040899502E-002	1.006583174571570E+003	2.000000000000000E+000
-2.0337407E-001	-1.547452125367293E-002	1.010581374470567E+003	2.000000000000000E+000
-2.2336669E-001	-1.590009000477613E-002	1.014579474369566E+003	2.000000000000000E+000
-2.4335402E-001	-1.651680247611079E-002	1.018577574268566E+003	2.000000000000000E+000
-2.6336670E-001	-1.717834981620875E-002	1.022575774167562E+003	2.000000000000000E+000
-2.8334472E-001	-1.803309474059274E-002	1.026573874066562E+003	2.000000000000000E+000
-3.0333033E-001	-1.898391116088438E-002	1.030571973965561E+003	2.000000000000000E+000
-3.2329294E-001	-1.991957601116517E-002	1.034570173864558E+003	2.000000000000000E+000
-3.4329036E-001	-2.070171958778762E-002	1.038568273763558E+003	2.000000000000000E+000
-3.6329564E-001	-2.119918560403415E-002	1.042566473662555E+003	2.000000000000000E+000
-3.8327286E-001	-2.150850321452358E-002	1.046564573561554E+003	2.000000000000000E+000
-4.0325835E-001	-2.182141718926656E-002	1.050562773460551E+003	2.000000000000000E+000
-4.2326185E-001	-2.224068587903383E-002	1.054560873359551E+003	2.000000000000000E+000
-4.4326422E-001	-2.258176629866049E-002	1.058558973258550E+003	2.000000000000000E+000
-4.6326309E-001	-2.297667551919280E-002	1.062557173157547E+003	2.000000000000000E+000
-4.8327342E-001	-2.323354556620938E-002	1.066555273056547E+003	2.000000000000000E+000
-5.0322634E-001	-2.331578813133189E-002	1.070553372955546E+003	2.000000000000000E+000
-5.2321464E-001	-2.341787050313965E-002	1.074551572854543E+003	2.000000000000000E+000
-5.4320395E-001	-2.336218291558195E-002	1.078549672753543E+003	2.000000000000000E+000
-5.6319910E-001	-2.331212052462617E-002	1.082547872652540E+003	2.000000000000000E+000
-5.8315867E-001	-2.322483612126779E-002	1.086545972551539E+003	2.000000000000000E+000
-6.0316622E-001	-2.300247281582302E-002	1.090544172450536E+003	2.000000000000000E+000
-6.2317032E-001	-2.291665143856358E-002	1.094542272349536E+003	2.000000000000000E+000
-6.4315367E-001	-2.294296143819896E-002	1.098540372248535E+003	2.000000000000000E+000
-6.6313726E-001	-2.301003054326062E-002	1.102538572147532E+003	2.000000000000000E+000
-6.8314141E-001	-2.343044309887365E-002	1.106536672046532E+003	2.000000000000000E+000
-7.0313311E-001	-2.399655602898243E-002	1.110534771945531E+003	2.000000000000000E+000
-7.2309124E-001	-2.502696661124443E-002	1.114532971844528E+003	2.000000000000000E+000
-7.4309826E-001	-2.683631929441258E-002	1.118531071743528E+003	2.000000000000000E+000
-7.6307684E-001	-2.939840959147706E-002	1.122529271642525E+003	2.000000000000000E+000
-7.8304684E-001	-3.304077056262977E-002	1.126527371541524E+003	2.000000000000000E+000
-8.0305231E-001	-3.810701805563910E-002	1.130525571440521E+003	2.000000000000000E+000
-8.2302481E-001	-4.515450288794631E-002	1.134523671339521E+003	2.000000000000000E+000
-8.4306216E-001	-5.425425569839398E-002	1.138521771238520E+003	2.000000000000000E+000
-8.6304235E-001	-6.514788488276685E-002	1.142519971137517E+003	2.000000000000000E+000
-8.8304913E-001	-7.504430490072178E-002	1.146518071036517E+003	2.000000000000000E+000
-9.0300667E-001	-7.623379022522997E-002	1.150516270935514E+003	2.000000000000000E+000
-9.2296863E-001	-6.522343425627131E-002	1.154514370834513E+003	2.000000000000000E+000
-9.4295621E-001	-5.035288414168027E-002	1.158512470733513E+003	2.000000000000000E+000
-9.6294165E-001	-3.836007304032485E-002	1.162510670632510E+003	2.000000000000000E+000
-9.8293442E-001	-3.026415405123408E-002	1.166508770531509E+003	2.000000000000000E+000
-1.0029470E+000	-2.508216287625015E-002	1.170506970430506E+003	2.000000000000000E+000
-1.0229256E+000	-2.187925634958654E-002	1.174505070329506E+003	2.000000000000000E+000
-1.0429409E+000	-1.983083819663214E-002	1.178503170228505E+003	2.000000000000000E+000
-1.0629140E+000	-1.843989495205950E-002	1.182501370127502E+003	2.000000000000000E+000
-1.0828886E+000	-1.744367785712928E-002	1.186499470026502E+003	2.000000000000000E+000
-1.1028957E+000	-1.668990442279802E-002	1.190497669925498E+003	2.000000000000000E+000
-1.1229340E+000	-1.600263600225516E-002	1.194495769824498E+003	2.000000000000000E+000
-1.1428720E+000	-1.536611612659911E-002	1.198493869723497E+003	2.000000000000000E+000
-1.1628590E+000	-1.484106868815792E-002	1.202492069622494E+003	2.000000000000000E+000
-1.1828451E+000	-1.443598662857332E-002	1.206490169521494E+003	2.000000000000000E+000
-1.2028253E+000	-1.417930004550694E-002	1.210488369420491E+003	2.000000000000000E+000
-1.2228360E+000	-1.403915637061270E-002	1.214486469319490E+003	2.000000000000000E+000
-1.2428124E+000	-1.397528546379750E-002	1.218484569218490E+003	2.000000000000000E+000
-1.2628121E+000	-1.396394421622605E-002	1.222482769117487E+003	2.000000000000000E+000
-1.2828029E+000	-1.399385510952378E-002	1.226480869016486E+003	2.000000000000000E+000
-1.3028109E+000	-1.405735042714177E-002	1.230478968915486E+003	2.000000000000000E+000
-1.3227948E+000	-1.414972370782921E-002	1.234477168814483E+003	2.000000000000000E+000
-1.3427594E+000	-1.425537467545557E-002	1.238475368713480E+003	2.000000000000000E+000
-1.3627526E+000	-1.439247488267731E-002	1.242473468612479E+003	2.000000000000000E+000
-1.3827559E+000	-1.454984925805047E-002	1.246471568511479E+003	2.000000000000000E+000
-1.4027452E+000	-1.474536402053847E-002	1.250469768410476E+003	2.000000000000000E+000
-1.4227132E+000	-1.496676189840307E-002	1.254467868309475E+003	2.000000000000000E+000
-1.4427246E+000	-1.526970502787404E-002	1.258465968208475E+003	2.000000000000000E+000
-1.4627250E+000	-1.568348936421390E-002	1.262464168107472E+003	2.000000000000000E+000
-1.4827304E+000	-1.623903788143471E-002	1.266462268006471E+003	2.000000000000000E+000
-1.5027002E+000	-1.687652119416561E-002	1.270460467905468E+003	2.000000000000000E+000
-1.5226748E+000	-1.786079840054053E-002	1.274458567804468E+003	2.000000000000000E+000
-1.5426513E+000	-1.916010458356490E-002	1.278456667703467E+003	2.000000000000000E+000
-1.5383557E+000	-1.788831354388820E-002	1.282215467608512E+003	2.000000000000000E+000
-1.5183829E+000	-1.609997201751595E-002	1.286213567507511E+003	2.000000000000000E+000
-1.4984175E+000	-1.484533078653183E-002	1.290211667406511E+003	2.000000000000000E+000
-1.4784104E+000	-1.389852740313356E-002	1.294209867305508E+003	2.000000000000000E+000
-1.4584274E+000	-1.314284800775689E-002	1.298207967204507E+003	2.000000000000000E+000
-1.4384177E+000	-1.251774713649920E-002	1.302206167103504E+003	2.000000000000000E+000
-1.4184141E+000	-1.201486347772923E-002	1.306204267002504E+003	2.000000000000000E+000
-1.3984365E+000	-1.159481381961303E-002	1.310202366901503E+003	2.000000000000000E+000
-1.3784435E+000	-1.123530718314732E-002	1.314200566800500E+003	2.000000000000000E+000
-1.3584524E+000	-1.091451433372564E-002	1.318198666699500E+003	2.000000000000000E+000
-1.3384705E+000	-1.062145167646915E-002	1.322196766598499E+003	2.000000000000000E+000
-1.3185111E+000	-1.034404153029097E-002	1.326194966497496E+003	2.000000000000000E+000
-1.2985178E+000	-1.009775530154895E-002	1.330193166396493E+003	2.000000000000000E+000
-1.2785401E+000	-9.857975983986300E-003	1.334191266295493E+003	2.000000000000000E+000
-1.2585237E+000	-9.624313621316119E-003	1.338189366194492E+003	2.000000000000000E+000
-1.2385609E+000	-9.387500894830370E-003	1.342187566093489E+003	2.000000000000000E+000
-1.2185316E+000	-9.170301891209431E-003	1.346185665992489E+003	2.000000000000000E+000
-1.1985751E+000	-8.943753324389927E-003	1.350183765891488E+003	2.000000000000000E+000
-1.1785868E+000	-8.713499688313191E-003	1.354181965790485E+003	2.000000000000000E+000
-1.1585727E+000	-8.471027956221499E-003	1.358180065689485E+003	2.000000000000000E+000
-1.1386077E+000	-8.232349318816709E-003	1.362178265588482E+003	2.000000000000000E+000
-1.1186312E+000	-7.911883294054374E-003	1.366176365487481E+003	2.000000000000000E+000
-1.0986458E+000	-7.557479023520414E-003	1.370174465386481E+003	2.000000000000000E+000
-1.0786334E+000	-7.220078063228927E-003	1.374172665285478E+003	2.000000000000000E+000
-1.0586299E+000	-6.774455454235370E-003	1.378170765184477E+003	2.000000000000000E+000
-1.0386603E+000	-6.080403872116169E-003	1.382168965083474E+003	2.000000000000000E+000
-1.0186546E+000	-5.003937401907618E-003	1.386167064982474E+003	2.000000000000000E+000
-9.9853742E-001	-3.201734172894356E-003	1.390185164880968E+003	2.000000000000000E+000
-9.7853762E-001	-7.817024754669941E-005	1.394183364779965E+003	2.000000000000000E+000
-9.5857275E-001	5.528544694756415E-003	1.398181464678964E+003	2.000000000000000E+000
-9.3845922E-001	1.557971490692256E-002	1.402199564577459E+003	2.000000000000000E+000
-9.1851079E-001	3.352900583491306E-002	1.406197764476456E+003	2.000000000000000E+000
-8.9851135E-001	6.065277914824097E-002	1.410195864375455E+003	2.000000000000000E+000
-8.7853593E-001	8.284904606234345E-002	1.414194064274452E+003	2.000000000000000E+000
-8.5855025E-001	7.004141660096752E-002	1.418192164173452E+003	2.000000000000000E+000
-8.3854884E-001	5.109293552662575E-002	1.422190264072451E+003	2.000000000000000E+000
-8.1855375E-001	3.732508806726755E-002	1.426188463971448E+003	2.000000000000000E+000
-7.9856122E-001	2.764009001671131E-002	1.430186563870448E+003	2.000000000000000E+000
-7.7856970E-001	2.163924508220716E-002	1.434184763769445E+003	2.000000000000000E+000
-7.5857973E-001	1.794062149616649E-002	1.438182863668444E+003	2.000000000000000E+000
-7.3857820E-001	1.602577231215047E-002	1.442180963567444E+003	2.000000000000000E+000
-7.1858239E-001	1.519516315493342E-002	1.446179163466441E+003	2.000000000000000E+000
-6.9862348E-001	1.486826537261188E-002	1.450177263365440E+003	2.000000000000000E+000
-6.7867255E-001	1.508622607088786E-002	1.454175463264437E+003	2.000000000000000E+000
-6.5863329E-001	1.535420198534149E-002	1.458173563163436E+003	2.000000000000000E+000
-6.3865846E-001	1.581867964599859E-002	1.462171763062433E+003	2.000000000000000E+000
-6.1864918E-001	1.632625259549664E-002	1.466169862961433E+003	2.000000000000000E+000
-5.9866780E-001	1.682733870209080E-002	1.470167962860432E+003	2.000000000000000E+000
-5.7867569E-001	1.747022511196261E-002	1.474166162759429E+003	2.000000000000000E+000
-5.5871320E-001	1.825586143831657E-002	1.478164262658429E+003	2.000000000000000E+000
-5.3869402E-001	1.893480111992142E-002	1.482162362557428E+003	2.000000000000000E+000
-5.1870662E-001	1.970838414728979E-002	1.486160562456425E+003	2.000000000000000E+000
-4.9874738E-001	1.978449369663698E-002	1.490158662355425E+003	2.000000000000000E+000
-4.7876906E-001	1.988669078421279E-002	1.494156862254422E+003	2.000000000000000E+000
-4.5876780E-001	2.000634710102764E-002	1.498154962153421E+003	2.000000000000000E+000
-4.3874133E-001	2.009556755329039E-002	1.502153162052418E+003	2.000000000000000E+000
-4.1874617E-001	2.017316838526356E-002	1.506151261951418E+003	2.000000000000000E+000
-3.9877343E-001	2.037541412332891E-002	1.510149361850417E+003	2.000000000000000E+000
-3.7877882E-001	2.047174556503939E-002	1.514147561749414E+003	2.000000000000000E+000
-3.5877740E-001	2.063065608230927E-002	1.518145661648414E+003	2.000000000000000E+000
-3.3879885E-001	2.055805950379760E-002	1.522143861547411E+003	2.000000000000000E+000
-3.1880167E-001	2.032219746391351E-002	1.526141961446410E+003	2.000000000000000E+000
-2.9883403E-001	1.988756483362036E-002	1.530140061345410E+003	2.000000000000000E+000
-2.7884954E-001	1.922755329599286E-002	1.534138261244407E+003	2.000000000000000E+000
-2.5884235E-001	1.858528102697940E-002	1.538136361143406E+003	2.000000000000000E+000
-2.3886718E-001	1.818840006826219E-002	1.542134561042403E+003	2.000000000000000E+000
-2.1889634E-001	1.786109560898369E-002	1.546132660941403E+003	2.000000000000000E+000
-1.9885397E-001	1.771334974599961E-002	1.550130760840402E+003	2.000000000000000E+000
-1.7887627E-001	1.748080901767800E-002	1.554128960739399E+003	2.000000000000000E+000
-1.5888612E-001	1.726185966841381E-002	1.558127060638399E+003	2.000000000000000E+000
-1.3887361E-001	1.710299735674917E-002	1.562125260537396E+003	2.000000000000000E+000
-1.1888362E-001	1.678644483402170E-002	1.566123360436395E+003	2.000000000000000E+000
-9.8937184E-002	1.650080436920540E-002	1.570121460335395E+003	2.000000000000000E+000
-7.8912362E-002	1.622228456228741E-002	1.574119660234392E+003	2.000000000000000E+000
-5.8948055E-002	1.606224653616762E-002	1.578117760133391E+003	2.000000000000000E+000
-3.8940892E-002	1.577134285998053E-002	1.582115960032388E+003	2.000000000000000E+000
-1.8959418E-002	1.542219608670560E-002	1.586114059931388E+003	2.000000000000000E+000
1.0543423E-003	1.495630264465964E-002	1.590112159830387E+003	2.000000000000000E+000
2.1061920E-002	1.418583766349263E-002	1.594110359729384E+003	2.000000000000000E+000
4.1060794E-002	1.323927415675308E-002	1.598108459628384E+003	2.000000000000000E+000
5.9626799E-002	1.214490229102341E-002	1.601826759534451E+003	3.000000000000000E+000
7.9608053E-002	1.074194147254082E-002	1.605824859433451E+003	3.000000000000000E+000
9.9609621E-002	9.221201856631292E-003	1.609823059332448E+003	3.000000000000000E+000
1.1957932E-001	7.711663518693332E-003	1.613821159231447E+003	3.000000000000000E+000
1.3956165E-001	6.463210984363393E-003	1.617819359130444E+003	3.000000000000000E+000
1.5957104E-001	5.609642049288599E-003	1.621817459029444E+003	3.000000000000000E+000
1.7956111E-001	5.127259107230581E-003	1.625815558928443E+003	3.000000000000000E+000
1.9953899E-001	4.877426996674011E-003	1.629813758827440E+003	3.000000000000000E+000
2.1955919E-001	4.724462111550538E-003	1.633811858726440E+003	3.000000000000000E+000
2.3954692E-001	4.591926005532985E-003	1.637809958625439E+003	3.000000000000000E+000
2.5960818E-001	4.448295702207186E-003	1.641828158523931E+003	3.000000000000000E+000
2.7962771E-001	4.320774320240230E-003	1.645826258422931E+003	3.000000000000000E+000
2.9960278E-001	4.205288224898657E-003	1.649824458321928E+003	3.000000000000000E+000
3.1958446E-001	4.100577853242030E-003	1.653822558220927E+003	3.000000000000000E+000
3.3953452E-001	4.013669616037038E-003	1.657820658119927E+003	3.000000000000000E+000
3.5957032E-001	3.943861852091432E-003	1.661818858018923E+003	3.000000000000000E+000
3.7955609E-001	3.894246355978917E-003	1.665816957917923E+003	3.000000000000000E+000
3.9955258E-001	3.866472660459364E-003	1.669815157816920E+003	3.000000000000000E+000
4.1951945E-001	3.861246210946717E-003	1.673813257715919E+003	3.000000000000000E+000
4.3951815E-001	3.877825045822476E-003	1.677811357614919E+003	3.000000000000000E+000
4.4142839E-001	3.493743625648631E-003	1.681610057518956E+003	3.000000000000000E+000
4.2144844E-001	2.996121903404002E-003	1.685608257417953E+003	3.000000000000000E+000
4.0144348E-001	2.624540302093751E-003	1.689606357316952E+003	3.000000000000000E+000
3.8147455E-001	2.313558900739612E-003	1.693604457215952E+003	3.000000000000000E+000
3.6147457E-001	2.042437959336698E-003	1.697602657114949E+003	3.000000000000000E+000
3.4145257E-001	1.796951940606688E-003	1.701600757013948E+003	3.000000000000000E+000
3.2150924E-001	1.571177018350245E-003	1.705598956912945E+003	3.000000000000000E+000
3.0151650E-001	1.355841050248433E-003	1.709597056811945E+003	3.000000000000000E+000
2.8153187E-001	1.139684239938100E-003	1.713595156710944E+003	3.000000000000000E+000
2.6153952E-001	9.050789942973217E-004	1.717593356609941E+003	3.000000000000000E+000
2.4154674E-001	6.258830518460197E-004	1.721591456508941E+003	3.000000000000000E+000
2.2154894E-001	2.680416713595549E-004	1.725589656407938E+003	3.000000000000000E+000
2.0153293E-001	-1.875965865328210E-004	1.729587756306937E+003	3.000000000000000E+000
1.8154849E-001	-7.021533913503936E-004	1.733585956205934E+003	3.000000000000000E+000
1.6156597E-001	-1.162930985136728E-003	1.737584056104934E+003	3.000000000000000E+000
1.4156684E-001	-1.496893105734231E-003	1.741582156003933E+003	3.000000000000000E+000
1.2158027E-001	-1.992658311165227E-003	1.745580355902930E+003	3.000000000000000E+000
1.0161065E-001	-2.861394658122698E-003	1.749578455801930E+003	3.000000000000000E+000
8.1594802E-002	-4.045387633781573E-003	1.753576555700929E+003	3.000000000000000E+000
6.1596353E-002	-5.351313841541078E-003	1.757574755599926E+003	3.000000000000000E+000
4.1606762E-002	-6.628265438482689E-003	1.761572855498925E+003	3.000000000000000E+000
2.1629898E-002	-7.778206303846048E-003	1.765571055397922E+003	3.000000000000000E+000
1.6436176E-003	-8.847281517016942E-003	1.769569155296922E+003	3.000000000000000E+000
-1.8376060E-002	-9.809714779556087E-003	1.773567355195919E+003	3.000000000000000E+000
-3.8449299E-002	-1.024912506913407E-002	1.777585455094413E+003	3.000000000000000E+000
-5.8439385E-002	-1.098124595169430E-002	1.781583554993413E+003	3.000000000000000E+000
-7.8438699E-002	-1.174482379714242E-002	1.785581754892410E+003	3.000000000000000E+000
-9.8436624E-002	-1.248433493966469E-002	1.789579854791409E+003	3.000000000000000E+000
-1.1839766E-001	-1.320684000758909E-002	1.793577954690409E+003	3.000000000000000E+000
-1.3838890E-001	-1.377556787839668E-002	1.797576154589406E+003	3.000000000000000E+000
-1.5835494E-001	-1.433475172436471E-002	1.801574254488405E+003	3.000000000000000E+000
-1.7836037E-001	-1.471568582433777E-002	1.805572354387405E+003	3.000000000000000E+000
-1.9834805E-001	-1.504214716794874E-002	1.809570554286402E+003	3.000000000000000E+000
-2.1838911E-001	-1.547583514248080E-002	1.813568654185401E+003	3.000000000000000E+000
-2.3836112E-001	-1.601826433390535E-002	1.817566854084398E+003	3.000000000000000E+000
-2.5836867E-001	-1.667986756830536E-002	1.821564953983398E+003	3.000000000000000E+000
-2.7832323E-001	-1.762015237501990E-002	1.825563153882395E+003	3.000000000000000E+000
-2.9833105E-001	-1.851624001532154E-002	1.829561253781394E+003	3.000000000000000E+000
-3.1830510E-001	-1.947897629030446E-002	1.833559353680394E+003	3.000000000000000E+000
-3.3829591E-001	-2.014579668761468E-002	1.837557553579391E+003	3.000000000000000E+000
-3.5828614E-001	-2.063159420565519E-002	1.841555653478390E+003	3.000000000000000E+000
-3.7829071E-001	-2.100259050506380E-002	1.845553753377390E+003	3.000000000000000E+000
-3.9825699E-001	-2.130875309315233E-002	1.849551953276386E+003	3.000000000000000E+000
-4.1825882E-001	-2.168061965936582E-002	1.853550153175383E+003	3.000000000000000E+000
-4.3824694E-001	-2.200842567441996E-002	1.857548253074383E+003	3.000000000000000E+000
-4.5823199E-001	-2.230928742296168E-002	1.861546352973382E+003	3.000000000000000E+000
-4.7824147E-001	-2.262373111509594E-002	1.865544552872379E+003	3.000000000000000E+000
-4.9824035E-001	-2.272358088492310E-002	1.869542652771379E+003	3.000000000000000E+000
-5.1818579E-001	-2.271730643594131E-002	1.873540752670378E+003	3.000000000000000E+000
-5.3818852E-001	-2.261527681373737E-002	1.877538952569375E+003	3.000000000000000E+000
-5.5816782E-001	-2.256365309645389E-002	1.881537052468375E+003	3.000000000000000E+000
-5.7814270E-001	-2.237752632872288E-002	1.885535252367372E+003	3.000000000000000E+000
-5.9816545E-001	-2.230274030458823E-002	1.889533352266371E+003	3.000000000000000E+000
-6.1818808E-001	-2.215227523798546E-002	1.893531552165368E+003	3.000000000000000E+000
-6.3815945E-001	-2.214143108663408E-002	1.897529652064368E+003	3.000000000000000E+000
-6.5814382E-001	-2.217523655191578E-002	1.901527751963367E+003	3.000000000000000E+000
-6.7814511E-001	-2.243423232660349E-002	1.905525951862364E+003	3.000000000000000E+000
-6.9814384E-001	-2.285960051326408E-002	1.909524051761364E+003	3.000000000000000E+000
-7.1809638E-001	-2.385981592911285E-002	1.913522151660363E+003	3.000000000000000E+000
-7.3809379E-001	-2.551911278446201E-002	1.917520351559360E+003	3.000000000000000E+000
-7.5807095E-001	-2.793468073367356E-002	1.921518451458360E+003	3.000000000000000E+000
-7.7804136E-001	-3.144174469383290E-002	1.925516651357357E+003	3.000000000000000E+000
-7.9803383E-001	-3.633338682139164E-002	1.929514751256356E+003	3.000000000000000E+000
-8.1805420E-001	-4.306945991422562E-002	1.933512951155353E+003	3.000000000000000E+000
-8.3804786E-001	-5.164460667166071E-002	1.937511051054353E+003	3.000000000000000E+000
-8.5801971E-001	-6.226196668592310E-002	1.941509150953352E+003	3.000000000000000E+000
-8.7801075E-001	-7.234202311722682E-002	1.945507350852349E+003	3.000000000000000E+000
-8.9799571E-001	-7.523096390856632E-002	1.949505450751349E+003	3.000000000000000E+000
-9.1800314E-001	-6.650271407329955E-002	1.953503550650348E+003	3.000000000000000E+000
-9.3796641E-001	-5.196460990589991E-002	1.957501750549345E+003	3.000000000000000E+000
-9.5796186E-001	-3.935995404779585E-002	1.961499850448345E+003	3.000000000000000E+000
-9.7796071E-001	-3.064661925557655E-002	1.965498050347342E+003	3.000000000000000E+000
-9.9794739E-001	-2.508086996795011E-002	1.969496150246341E+003	3.000000000000000E+000
-1.0179251E+000	-2.155012597436562E-002	1.973494350145338E+003	3.000000000000000E+000
-1.0379305E+000	-1.929851214476727E-002	1.977492450044338E+003	3.000000000000000E+000
-1.0579045E+000	-1.781286129159348E-002	1.981490549943337E+003	3.000000000000000E+000
-1.0779229E+000	-1.676514707986149E-002	1.985488749842334E+003	3.000000000000000E+000
-1.0979307E+000	-1.598809460362599E-002	1.989486849741334E+003	3.000000000000000E+000
-1.1179355E+000	-1.531461656270641E-002	1.993484949640333E+003	3.000000000000000E+000
-1.1378903E+000	-1.469407939732753E-002	1.997483149539330E+003	3.000000000000000E+000
-1.1578736E+000	-1.415978834213222E-002	2.001481249438330E+003	3.000000000000000E+000
-1.1778710E+000	-1.374651029226109E-002	2.005479449337327E+003	3.000000000000000E+000
-1.1978576E+000	-1.347016123487238E-002	2.009477549236326E+003	3.000000000000000E+000
-1.2178254E+000	-1.330883203762140E-002	2.013475649135326E+003	3.000000000000000E+000
-1.2378190E+000	-1.323979853776860E-002	2.017473849034322E+003	3.000000000000000E+000
-1.2578237E+000	-1.323111787664885E-002	2.021471948933322E+003	3.000000000000000E+000
-1.2778062E+000	-1.325583642719800E-002	2.025470148832319E+003	3.000000000000000E+000
-1.2978153E+000	-1.330201514265405E-002	2.029468248731318E+003	3.000000000000000E+000
-1.3178045E+000	-1.337639825516798E-002	2.033466348630318E+003	3.000000000000000E+000
-1.3377748E+000	-1.346461114311556E-002	2.037464548529315E+003	3.000000000000000E+000
-1.3577615E+000	-1.357556835042428E-002	2.041462648428314E+003	3.000000000000000E+000
-1.3777243E+000	-1.370742389675447E-002	2.045460848327311E+003	3.000000000000000E+000
-1.3977396E+000	-1.387188898329778E-002	2.049458948226311E+003	3.000000000000000E+000
-1.4176910E+000	-1.407048275536917E-002	2.053457148125308E+003	3.000000000000000E+000
-1.4377207E+000	-1.431063106529593E-002	2.057455248024307E+003	3.000000000000000E+000
-1.4577155E+000	-1.465634750587710E-002	2.061453347923307E+003	3.000000000000000E+000
-1.4777018E+000	-1.511423048247063E-002	2.065451547822304E+003	3.000000000000000E+000
-1.4976915E+000	-1.564690649070945E-002	2.069449647721303E+003	3.000000000000000E+000
-1.5177007E+000	-1.642450870766014E-002	2.073447747620303E+003	3.000000000000000E+000
-1.5376348E+000	-1.748782646926245E-002	2.077445947519300E+003	3.000000000000000E+000
-1.5433520E+000	-1.716280176064963E-002	2.081204647424347E+003	3.000000000000000E+000
-1.5233916E+000	-1.532079027689262E-002	2.085202847323344E+003	3.000000000000000E+000
-1.5034201E+000	-1.410270168640299E-002	2.089200947222344E+003	3.000000000000000E+000
-1.4834244E+000	-1.318353447295478E-002	2.093199147121341E+003	3.000000000000000E+000
-1.4634273E+000	-1.244880393057221E-002	2.097197247020340E+003	3.000000000000000E+000
-1.4434446E+000	-1.184787261489856E-002	2.101195346919354E+003	3.000000000000000E+000
-1.4234470E+000	-1.136345913019421E-002	2.105193546818336E+003	3.000000000000000E+000
-1.4034359E+000	-1.097741477391337E-002	2.109191646717336E+003	3.000000000000000E+000
-1.3834425E+000	-1.062738733125559E-002	2.113189746616350E+003	3.000000000000000E+000
-1.3634446E+000	-1.031641460697233E-002	2.117187946515332E+003	3.000000000000000E+000
-1.3434362E+000	-1.003440859792260E-002	2.121186046414332E+003	3.000000000000000E+000
-1.3234911E+000	-9.794698866769966E-003	2.125184246313329E+003	3.000000000000000E+000
-1.3035148E+000	-9.557092725523658E-003	2.129182346212328E+003	3.000000000000000E+000
-1.2835344E+000	-9.340844286184410E-003	2.133180546111333E+003	3.000000000000000E+000
-1.2635336E+000	-9.117383464282036E-003	2.137178646010325E+003	3.000000000000000E+000
-1.2435362E+000	-8.895514601096624E-003	2.141176745909324E+003	3.000000000000000E+000
-1.2235457E+000	-8.683527195432833E-003	2.145174945808329E+003	3.000000000000000E+000
-1.2035440E+000	-8.475165064169857E-003	2.149173045707321E+003	3.000000000000000E+000
-1.1835552E+000	-8.253312667890051E-003	2.153171245606325E+003	3.000000000000000E+000
-1.1635602E+000	-8.047429539707746E-003	2.157169345505325E+003	3.000000000000000E+000
-1.1435537E+000	-7.795584704792025E-003	2.161167445404317E+003	3.000000000000000E+000
-1.1235944E+000	-7.499285910496124E-003	2.165165645303321E+003	3.000000000000000E+000
-1.1035666E+000	-7.156384622048801E-003	2.169163745202313E+003	3.000000000000000E+000
-1.0836157E+000	-6.798116566337206E-003	2.173161945101310E+003	3.000000000000000E+000
-1.0635892E+000	-6.417879303788149E-003	2.177160045000310E+003	3.000000000000000E+000
-1.0436331E+000	-5.868986988444888E-003	2.181158144899309E+003	3.000000000000000E+000
-1.0236343E+000	-4.948769557071200E-003	2.185156344798306E+003	3.000000000000000E+000
-1.0035410E+000	-3.432633038859101E-003	2.189174444696800E+003	3.000000000000000E+000
-9.8354429E-001	-8.186036931588734E-004	2.193172544595800E+003	3.000000000000000E+000
-9.6356469E-001	3.807452198064137E-003	2.197170744494797E+003	3.000000000000000E+000
-9.4344795E-001	1.212155496936063E-002	2.201188844393291E+003	3.000000000000000E+000
-9.2347699E-001	2.736936169642934E-002	2.205187044292288E+003	3.000000000000000E+000
-9.0351975E-001	5.187367447419644E-002	2.209185144191288E+003	3.000000000000000E+000
-8.8353443E-001	7.844205902173465E-002	2.213183344090285E+003	3.000000000000000E+000
-8.6351866E-001	7.648122211874142E-002	2.217181443989284E+003	3.000000000000000E+000
-8.4352797E-001	5.543854353577748E-002	2.221179543888284E+003	3.000000000000000E+000
-8.2352394E-001	4.085231945895351E-002	2.225177743787281E+003	3.000000000000000E+000
-8.0352879E-001	3.062862282442036E-002	2.229175843686280E+003	3.000000000000000E+000
-7.8354049E-001	2.296664497298717E-002	2.233173943585280E+003	3.000000000000000E+000
-7.6355636E-001	1.883467070638500E-002	2.237172143484277E+003	3.000000000000000E+000
-7.4354595E-001	1.644018827111599E-002	2.241170243383283E+003	3.000000000000000E+000
-7.2354853E-001	1.533023912110435E-002	2.245168443282273E+003	3.000000000000000E+000
-7.0360887E-001	1.484193500564823E-002	2.249166543181287E+003	3.000000000000000E+000
-6.8363696E-001	1.488767704496677E-002	2.253164743080270E+003	3.000000000000000E+000
-6.6361588E-001	1.525422967851481E-002	2.257162842979269E+003	3.000000000000000E+000
-6.4364254E-001	1.554936509819113E-002	2.261160942878283E+003	3.000000000000000E+000
-6.2364137E-001	1.587864167881650E-002	2.265159142777266E+003	3.000000000000000E+000
-6.0364062E-001	1.647878669906042E-002	2.269157242676265E+003	3.000000000000000E+000
-5.8366227E-001	1.704989868765822E-002	2.273155342575279E+003	3.000000000000000E+000
-5.6366527E-001	1.769590708165794E-002	2.277153542474261E+003	3.000000000000000E+000
-5.4367864E-001	1.839592171826671E-002	2.281151642373261E+003	3.000000000000000E+000
-5.2371001E-001	1.897970266002502E-002	2.285149842272258E+003	3.000000000000000E+000
-5.0372249E-001	1.945143212646651E-002	2.289147942171257E+003	3.000000000000000E+000
-4.8374841E-001	1.952475116560725E-002	2.293146142070262E+003	3.000000000000000E+000
-4.6373773E-001	1.960808177614337E-002	2.297144241969254E+003	3.000000000000000E+000
-4.4373113E-001	1.971012918722597E-002	2.301142341868253E+003	3.000000000000000E+000
-4.2375872E-001	1.973637906280651E-002	2.305140541767250E+003	3.000000000000000E+000
-4.0378025E-001	1.976873405697055E-002	2.309138641666250E+003	3.000000000000000E+000
-3.8376161E-001	1.991128967612957E-002	2.313136741565249E+003	3.000000000000000E+000
-3.6379388E-001	1.996356105065511E-002	2.317134941464246E+003	3.000000000000000E+000
-3.4377062E-001	2.000326494643624E-002	2.321133041363246E+003	3.000000000000000E+000
-3.2380900E-001	1.976586669240205E-002	2.325131241262243E+003	3.000000000000000E+000
-3.0382860E-001	1.922975820536740E-002	2.329129341161242E+003	3.000000000000000E+000
-2.8382698E-001	1.880278606735940E-002	2.333127541060239E+003	3.000000000000000E+000
-2.6385558E-001	1.835015178258892E-002	2.337125640959239E+003	3.000000000000000E+000
-2.4385272E-001	1.812421108486206E-002	2.341123740858238E+003	3.000000000000000E+000
-2.2386973E-001	1.787147125099367E-002	2.345121940757235E+003	3.000000000000000E+000
-2.0385234E-001	1.772413400543958E-002	2.349120040656235E+003	3.000000000000000E+000
-1.8383887E-001	1.743392975707356E-002	2.353118140555234E+003	3.000000000000000E+000
-1.6383447E-001	1.713003749275990E-002	2.357116340454231E+003	3.000000000000000E+000
-1.4387678E-001	1.686152264655092E-002	2.361114440353231E+003	3.000000000000000E+000
-1.2385897E-001	1.668305708362872E-002	2.365112640252235E+003	3.000000000000000E+000
-1.0386918E-001	1.636654836898599E-002	2.369110740151227E+003	3.000000000000000E+000
-8.3881333E-002	1.616053903317549E-002	2.373108940050239E+003	3.000000000000000E+000
-6.3905112E-002	1.589299891334320E-002	2.377107039949231E+003	3.000000000000000E+000
-4.3915372E-002	1.570262568788983E-002	2.381105139848223E+003	3.000000000000000E+000
-2.3929631E-002	1.532924902158664E-002	2.385103339747235E+003	3.000000000000000E+000
-3.9318125E-003	1.483822320009795E-002	2.389101439646227E+003	3.000000000000000E+000
1.6050996E-002	1.405844056932809E-002	2.393099639545217E+003	3.000000000000000E+000
3.6048353E-002	1.312457837028186E-002	2.397097739444231E+003	3.000000000000000E+000
5.4636750E-002	1.200911530430071E-002	2.400816039350291E+003	4.000000000000000E+000
7.4633591E-002	1.065285759535828E-002	2.404814139249283E+003	4.000000000000000E+000
9.4624840E-002	9.128549862563257E-003	2.408812339148280E+003	4.000000000000000E+000
1.1460006E-001	7.633167525815512E-003	2.412810439047280E+003	4.000000000000000E+000
1.3458568E-001	6.343253416192967E-003	2.416808538946279E+003	4.000000000000000E+000
1.5457864E-001	5.413346600544822E-003	2.420806738845276E+003	4.000000000000000E+000
1.7458084E-001	4.858496130790911E-003	2.424804838744276E+003	4.000000000000000E+000
1.9458850E-001	4.566434684522967E-003	2.428802938643275E+003	4.000000000000000E+000
2.1468155E-001	4.390753931423991E-003	2.432821138541767E+003	4.000000000000000E+000
2.3466603E-001	4.265830266509354E-003	2.436819238440767E+003	4.000000000000000E+000
2.5463346E-001	4.150303134001419E-003	2.440817438339764E+003	4.000000000000000E+000
2.7465186E-001	4.036765026357324E-003	2.444815538238763E+003	4.000000000000000E+000
2.9462615E-001	3.934972302018530E-003	2.448813638137763E+003	4.000000000000000E+000
3.1458226E-001	3.846624659431050E-003	2.452811838036767E+003	4.000000000000000E+000
3.3459446E-001	3.775293649229194E-003	2.456809937935759E+003	4.000000000000000E+000
3.5457465E-001	3.717416986707460E-003	2.460808137834756E+003	4.000000000000000E+000
3.7458119E-001	3.679471530890766E-003	2.464806237733763E+003	4.000000000000000E+000
3.9455548E-001	3.656343660057848E-003	2.468804337632755E+003	4.000000000000000E+000
4.1455489E-001	3.652814336772062E-003	2.472802537531767E+003	4.000000000000000E+000
4.3455893E-001	3.664444771856602E-003	2.476800637430759E+003	4.000000000000000E+000
4.4644055E-001	3.474645383981775E-003	2.480599337334788E+003	4.000000000000000E+000
4.2644444E-001	2.940793363825953E-003	2.484597437233788E+003	4.000000000000000E+000
4.0643939E-001	2.570072667047293E-003	2.488595537132787E+003	4.000000000000000E+000
3.8646787E-001	2.265263047137804E-003	2.492593737031784E+003	4.000000000000000E+000
3.6647284E-001	2.002486096944880E-003	2.496591836930784E+003	4.000000000000000E+000
3.4647295E-001	1.768311292327109E-003	2.500590036829781E+003	4.000000000000000E+000
3.2647970E-001	1.555307501689893E-003	2.504588136728780E+003	4.000000000000000E+000
3.0655295E-001	1.352144261945709E-003	2.508586336627777E+003	4.000000000000000E+000
2.8654414E-001	1.150817841676195E-003	2.512584436526777E+003	4.000000000000000E+000
2.6655582E-001	9.377213937196457E-004	2.516582536425776E+003	4.000000000000000E+000
2.4655949E-001	6.941423889987031E-004	2.520580736324773E+003	4.000000000000000E+000
2.2657818E-001	3.904136603073865E-004	2.524578836223773E+003	4.000000000000000E+000
2.0656255E-001	-3.291063770171455E-006	2.528577036122770E+003	4.000000000000000E+000
1.8657537E-001	-4.720946364073736E-004	2.532575136021769E+003	4.000000000000000E+000
1.6657317E-001	-9.389442400719646E-004	2.536573235920769E+003	4.000000000000000E+000
1.4658807E-001	-1.292567209053882E-003	2.540571435819766E+003	4.000000000000000E+000
1.2657809E-001	-1.723507132496426E-003	2.544569535718765E+003	4.000000000000000E+000
1.0657050E-001	-2.495137942117285E-003	2.548567735617777E+003	4.000000000000000E+000
8.6612105E-002	-3.610746145755496E-003	2.552565835516762E+003	4.000000000000000E+000
6.6630863E-002	-4.861284639572028E-003	2.556563935415761E+003	4.000000000000000E+000
4.6633888E-002	-6.188595359581398E-003	2.560562135314765E+003	4.000000000000000E+000
2.6615519E-002	-7.368461151572171E-003	2.564560235213758E+003	4.000000000000000E+000
6.6412166E-003	-8.499099148710318E-003	2.568558335112757E+003	4.000000000000000E+000
-1.3365731E-002	-9.444654119412699E-003	2.572556535011761E+003	4.000000000000000E+000
-3.3374753E-002	-1.031165744360885E-002	2.576554634910754E+003	4.000000000000000E+000
-5.3452700E-002	-1.069256593365082E-002	2.580572834809253E+003	4.000000000000000E+000
-7.3455304E-002	-1.149940877836599E-002	2.584570934708252E+003	4.000000000000000E+000
-9.3435101E-002	-1.221615310519186E-002	2.588569134607242E+003	4.000000000000000E+000
-1.1339910E-001	-1.290265620544256E-002	2.592567234506249E+003	4.000000000000000E+000
-1.3340658E-001	-1.353032098802714E-002	2.596565334405248E+003	4.000000000000000E+000
-1.5338595E-001	-1.411026236421672E-002	2.600563534304238E+003	4.000000000000000E+000
-1.7340194E-001	-1.441171286404763E-002	2.604561634203244E+003	4.000000000000000E+000
-1.9338691E-001	-1.485128304430525E-002	2.608559734102237E+003	4.000000000000000E+000
-2.1339133E-001	-1.522096437061534E-002	2.612557934001234E+003	4.000000000000000E+000
-2.3338099E-001	-1.567631785177507E-002	2.616556033900233E+003	4.000000000000000E+000
-2.5339007E-001	-1.627130960444464E-002	2.620554233799230E+003	4.000000000000000E+000
-2.7336341E-001	-1.713860257768415E-002	2.624552333698230E+003	4.000000000000000E+000
-2.9337651E-001	-1.804323667724238E-002	2.628550533597227E+003	4.000000000000000E+000
-3.1329358E-001	-1.887808702050039E-002	2.632548633496226E+003	4.000000000000000E+000
-3.3329344E-001	-1.956395990301826E-002	2.636546733395226E+003	4.000000000000000E+000
-3.5328832E-001	-2.017317136473495E-002	2.640544933294223E+003	4.000000000000000E+000
-3.7329704E-001	-2.054484944204760E-002	2.644543033193222E+003	4.000000000000000E+000
-3.9326572E-001	-2.096427436031047E-002	2.648541133092222E+003	4.000000000000000E+000
-4.1329238E-001	-2.133086569121018E-002	2.652539332991219E+003	4.000000000000000E+000
-4.3327248E-001	-2.168056600691273E-002	2.656537432890225E+003	4.000000000000000E+000
-4.5325509E-001	-2.209847215431654E-002	2.660535632789215E+003	4.000000000000000E+000
-4.7324458E-001	-2.230295444846087E-002	2.664533732688229E+003	4.000000000000000E+000
-4.9324813E-001	-2.230147203145960E-002	2.668531932587211E+003	4.000000000000000E+000
-5.1319343E-001	-2.235218485540191E-002	2.672530032486211E+003	4.000000000000000E+000
-5.3319114E-001	-2.221901481931537E-002	2.676528132385225E+003	4.000000000000000E+000
-5.5316561E-001	-2.216174005258365E-002	2.680526332284207E+003	4.000000000000000E+000
-5.7316947E-001	-2.198878347799774E-002	2.684524432183207E+003	4.000000000000000E+000
-5.9315902E-001	-2.192743395082231E-002	2.688522632082204E+003	4.000000000000000E+000
-6.1316592E-001	-2.185935951830603E-002	2.692520731981203E+003	4.000000000000000E+000
-6.3318217E-001	-2.162489518863295E-002	2.696518831880203E+003	4.000000000000000E+000
-6.5316445E-001	-2.155950349084379E-002	2.700517031779200E+003	4.000000000000000E+000
-6.7315727E-001	-2.176105282813223E-002	2.704515131678199E+003	4.000000000000000E+000
-6.9313365E-001	-2.217091810667800E-002	2.708513331577204E+003	4.000000000000000E+000
-7.1314007E-001	-2.306021915550707E-002	2.712511431476196E+003	4.000000000000000E+000
-7.3309880E-001	-2.451706762769318E-002	2.716509531375195E+003	4.000000000000000E+000
-7.5306600E-001	-2.687573644766572E-002	2.720507731274192E+003	4.000000000000000E+000
-7.7307647E-001	-3.012691164482206E-002	2.724505831173192E+003	4.000000000000000E+000
-7.9307044E-001	-3.463593622657346E-002	2.728504031072189E+003	4.000000000000000E+000
-8.1305313E-001	-4.071057678724049E-002	2.732502130971188E+003	4.000000000000000E+000
-8.3306956E-001	-4.915535311185559E-002	2.736500230870188E+003	4.000000000000000E+000
-8.5302508E-001	-5.919420858423141E-002	2.740498430769185E+003	4.000000000000000E+000
-8.7302238E-001	-6.968709315509103E-002	2.744496530668184E+003	4.000000000000000E+000
-8.9301592E-001	-7.461154233461520E-002	2.748494730567181E+003	4.000000000000000E+000
-9.1303933E-001	-6.793746988458205E-002	2.752492830466181E+003	4.000000000000000E+000
-9.3298495E-001	-5.389498344193844E-002	2.756490930365180E+003	4.000000000000000E+000
-9.5296526E-001	-4.085242316494264E-002	2.760489130264177E+003	4.000000000000000E+000
-9.7296149E-001	-3.151020155795070E-002	2.764487230163177E+003	4.000000000000000E+000
-9.9295789E-001	-2.547705599552275E-002	2.768485330062176E+003	4.000000000000000E+000
-1.0129690E+000	-2.161757596739394E-002	2.772483529961173E+003	4.000000000000000E+000
-1.0329593E+000	-1.912713105303604E-002	2.776481629860173E+003	4.000000000000000E+000
-1.0529294E+000	-1.750820518203761E-002	2.780479829759177E+003	4.000000000000000E+000
-1.0729488E+000	-1.638375558531913E-002	2.784477929658169E+003	4.000000000000000E+000
-1.0929456E+000	-1.557264531222907E-002	2.788476129557181E+003	4.000000000000000E+000
-1.1129363E+000	-1.489892917888624E-002	2.792474229456173E+003	4.000000000000000E+000
-1.1328952E+000	-1.429141146120831E-002	2.796472329355165E+003	4.000000000000000E+000
-1.1528918E+000	-1.375094946957450E-002	2.800470529254177E+003	4.000000000000000E+000
-1.1728631E+000	-1.331499080821499E-002	2.804468629153162E+003	4.000000000000000E+000
-1.1928637E+000	-1.301946740937410E-002	2.808466729052161E+003	4.000000000000000E+000
-1.2128474E+000	-1.283176570390024E-002	2.812464928951173E+003	4.000000000000000E+000
-1.2328647E+000	-1.273458639687834E-002	2.816463128850155E+003	4.000000000000000E+000
-1.2528098E+000	-1.270428055268949E-002	2.820461228749155E+003	4.000000000000000E+000
-1.2728379E+000	-1.272501753376007E-002	2.824459328648169E+003	4.000000000000000E+000
-1.2928181E+000	-1.276232353783824E-002	2.828457528547151E+003	4.000000000000000E+000
-1.3128042E+000	-1.282980645624975E-002	2.832455628446151E+003	4.000000000000000E+000
-1.3327677E+000	-1.291351081421199E-002	2.836453728345165E+003	4.000000000000000E+000
-1.3527482E+000	-1.301493373823034E-002	2.840451928244147E+003	4.000000000000000E+000
-1.3727378E+000	-1.313922658574346E-002	2.844450028143154E+003	4.000000000000000E+000
-1.3927523E+000	-1.328422448793443E-002	2.848448228042143E+003	4.000000000000000E+000
-1.4126992E+000	-1.346054814529957E-002	2.852446327941143E+003	4.000000000000000E+000
-1.4327428E+000	-1.367572297782704E-002	2.856444427840150E+003	4.000000000000000E+000
-1.4527165E+000	-1.398333636957798E-002	2.860442627739139E+003	4.000000000000000E+000
-1.4727281E+000	-1.436806132538082E-002	2.864440727638139E+003	4.000000000000000E+000
-1.4927000E+000	-1.488260919325340E-002	2.868438927537136E+003	4.000000000000000E+000
-1.5126923E+000	-1.548599499249936E-002	2.872437027436135E+003	4.000000000000000E+000
-1.5326735E+000	-1.644614718372926E-002	2.876435127335135E+003	4.000000000000000E+000
-1.5483500E+000	-1.698230240571097E-002	2.880193927240180E+003	4.000000000000000E+000
-1.5283977E+000	-1.496270707968933E-002	2.884192127139177E+003	4.000000000000000E+000
-1.5084026E+000	-1.371713998182134E-002	2.888190227038176E+003	4.000000000000000E+000
-1.4884169E+000	-1.278604274653129E-002	2.892188326937176E+003	4.000000000000000E+000
-1.4684076E+000	-1.206368599737710E-002	2.896186526836173E+003	4.000000000000000E+000
-1.4484245E+000	-1.147376756043218E-002	2.900184626735172E+003	4.000000000000000E+000
-1.4284208E+000	-1.099247713487045E-002	2.904182726634172E+003	4.000000000000000E+000
-1.4084188E+000	-1.058872971125949E-002	2.908180926533169E+003	4.000000000000000E+000
-1.3884124E+000	-1.025270390103449E-002	2.912179026432175E+003	4.000000000000000E+000
-1.3684235E+000	-9.965037164028787E-003	2.916177226331165E+003	4.000000000000000E+000
-1.3484546E+000	-9.687423965151376E-003	2.920175326230165E+003	4.000000000000000E+000
-1.3284948E+000	-9.453511038716125E-003	2.924173426129171E+003	4.000000000000000E+000
-1.3084853E+000	-9.221834054237973E-003	2.928171626028161E+003	4.000000000000000E+000
-1.2884924E+000	-9.002455464200507E-003	2.932169725927175E+003	4.000000000000000E+000
-1.2685058E+000	-8.782783335115937E-003	2.936167925826157E+003	4.000000000000000E+000
-1.2485396E+000	-8.567616375197203E-003	2.940166025725157E+003	4.000000000000000E+000
-4.4992294E+000	-1.343367366644093E-004	2.944135325624884E+003	4.000000000000000E+000
