Ewe/V	<I>/mA	time/s	cycle number	
-8.6844765E-002	3.710347417521052E-003	4.549199885077542E+000	1.000000000000000E+000
-6.2841214E-002	3.635822553936324E-003	9.348299763842078E+000	1.000000000000000E+000
-3.8836278E-002	3.243921285772604E-003	1.414739964260662E+001	1.000000000000000E+000
-1.4911751E-002	2.887779970643711E-003	1.894639952137368E+001	1.000000000000000E+000
9.0894047E-003	2.655657972907385E-003	2.374559940013569E+001	1.000000000000000E+000
3.3148076E-002	2.540900073340999E-003	2.854459927890275E+001	1.000000000000000E+000
5.7122480E-002	2.481611442707627E-003	3.334369915766729E+001	1.000000000000000E+000
8.1129573E-002	2.476360222839227E-003	3.814279903643182E+001	1.000000000000000E+000
1.0509783E-001	2.514387230628251E-003	4.294179891519889E+001	1.000000000000000E+000
1.2914249E-001	2.563882218717388E-003	4.774099879396090E+001	1.000000000000000E+000
1.5314512E-001	2.642685022117203E-003	5.253999867272796E+001	1.000000000000000E+000
1.7709342E-001	2.742115376856487E-003	5.733899855149502E+001	1.000000000000000E+000
2.0114699E-001	2.864036928025381E-003	6.213819843025703E+001	1.000000000000000E+000
2.2512223E-001	3.024490989390661E-003	6.693719830902410E+001	1.000000000000000E+000
2.4910238E-001	3.222984688633957E-003	7.173639818778611E+001	1.000000000000000E+000
2.7310330E-001	3.486160497836323E-003	7.653539806655317E+001	1.000000000000000E+000
2.9706389E-001	3.834524530553260E-003	8.133439794532023E+001	1.000000000000000E+000
3.2105085E-001	4.284692549944194E-003	8.613359782408224E+001	1.000000000000000E+000
3.3662981E-001	4.128597808348192E-003	9.067319770940230E+001	1.000000000000000E+000
3.1265938E-001	2.761084507281554E-003	9.547229758816684E+001	1.000000000000000E+000
2.8867102E-001	1.946287051156965E-003	1.002713974669314E+002	1.000000000000000E+000
2.6469916E-001	1.323954860708913E-003	1.050703973456984E+002	1.000000000000000E+000
2.4068317E-001	8.521324742769287E-004	1.098695972244604E+002	1.000000000000000E+000
2.1675016E-001	4.821576437554166E-004	1.146685971032275E+002	1.000000000000000E+000
1.9274527E-001	1.786082701685056E-004	1.194676969819920E+002	1.000000000000000E+000
1.6875510E-001	-7.585704050465771E-005	1.242667968607566E+002	1.000000000000000E+000
1.4472930E-001	-2.790954660132736E-004	1.290657967395236E+002	1.000000000000000E+000
1.2075023E-001	-4.318016997322000E-004	1.338649966182857E+002	1.000000000000000E+000
9.6725106E-002	-5.653154406644566E-004	1.386639964970527E+002	1.000000000000000E+000
7.2745480E-002	-6.778159330561729E-004	1.434630963758173E+002	1.000000000000000E+000
4.8746996E-002	-7.694747146862013E-004	1.482621962545818E+002	1.000000000000000E+000
2.4765382E-002	-8.820658360466725E-004	1.530611961333489E+002	1.000000000000000E+000
7.7081425E-004	-1.033291909447377E-003	1.578603960121109E+002	1.000000000000000E+000
-2.3229495E-002	-1.279752847584529E-003	1.626593958908779E+002	1.000000000000000E+000
-4.7235433E-002	-1.689170469191939E-003	1.674584957696425E+002	1.000000000000000E+000
-7.1230754E-002	-2.472508195142900E-003	1.722575956484070E+002	1.000000000000000E+000
-9.5219173E-002	-3.878620858619668E-003	1.770565955271741E+002	1.000000000000000E+000
-1.1918064E-001	-6.025358199139547E-003	1.818557954059361E+002	1.000000000000000E+000
-1.4315017E-001	-8.521926592015979E-003	1.866547952847031E+002	1.000000000000000E+000
-1.6710170E-001	-1.006471089298518E-002	1.914538951634677E+002	1.000000000000000E+000
-1.9129409E-001	-1.039641136762867E-002	1.962729950417270E+002	1.000000000000000E+000
-2.1530905E-001	-1.087374735816038E-002	2.010719949204940E+002	1.000000000000000E+000
-2.3926136E-001	-1.144649369198386E-002	2.058711947992560E+002	1.000000000000000E+000
-2.6328054E-001	-1.202373613079144E-002	2.106701946780231E+002	1.000000000000000E+000
-2.8727227E-001	-1.273725949162748E-002	2.154692945567876E+002	1.000000000000000E+000
-3.1126466E-001	-1.396288390943456E-002	2.202683944355522E+002	1.000000000000000E+000
-3.3524966E-001	-1.497169320068750E-002	2.250673943143192E+002	1.000000000000000E+000
-3.5925439E-001	-1.665790895445693E-002	2.298665941930813E+002	1.000000000000000E+000
-3.8326341E-001	-1.794269430974305E-002	2.346655940718483E+002	1.000000000000000E+000
-4.0724725E-001	-1.989686867433652E-002	2.394646939506129E+002	1.000000000000000E+000
-4.3122879E-001	-2.157259001246122E-002	2.442637938293774E+002	1.000000000000000E+000
-4.5527568E-001	-2.397935683065561E-002	2.490627937081445E+002	1.000000000000000E+000
-4.7924709E-001	-2.606820964369017E-002	2.538619935869065E+002	1.000000000000000E+000
-5.0330067E-001	-2.806757524125958E-002	2.586609934656735E+002	1.000000000000000E+000
-5.2724206E-001	-2.935825011685206E-002	2.634600933444381E+002	1.000000000000000E+000
-5.5124015E-001	-3.005889693487318E-002	2.682591932232026E+002	1.000000000000000E+000
-5.7522839E-001	-3.022093668341411E-002	2.730581931019697E+002	1.000000000000000E+000
-5.9923178E-001	-2.982555956858518E-002	2.778573929807317E+002	1.000000000000000E+000
-6.2324262E-001	-2.973398294161506E-002	2.826563928594987E+002	1.000000000000000E+000
-6.4720404E-001	-2.982646788595740E-002	2.874554927382633E+002	1.000000000000000E+000
-6.7119598E-001	-2.930688745972587E-002	2.922545926170278E+002	1.000000000000000E+000
-6.9520521E-001	-2.925811756625069E-002	2.970535924957949E+002	1.000000000000000E+000
-7.1916312E-001	-2.884883976508713E-002	3.018527923745569E+002	1.000000000000000E+000
-7.4321073E-001	-2.873126378487742E-002	3.066517922533239E+002	1.000000000000000E+000
-7.6722407E-001	-2.904486538222223E-002	3.114508921320885E+002	1.000000000000000E+000
-7.9118365E-001	-2.943449199163778E-002	3.162499920108530E+002	1.000000000000000E+000
-8.1519026E-001	-3.096889583378104E-002	3.210489918896201E+002	1.000000000000000E+000
-8.3916634E-001	-3.310776200164489E-002	3.258481917683821E+002	1.000000000000000E+000
-8.6321074E-001	-3.474715413354645E-002	3.306471916471492E+002	1.000000000000000E+000
-8.8717920E-001	-3.689280805657708E-002	3.354462915259137E+002	1.000000000000000E+000
-9.1115689E-001	-3.942769303307558E-002	3.402453914046782E+002	1.000000000000000E+000
-9.3511730E-001	-4.385155669356511E-002	3.450443912834453E+002	1.000000000000000E+000
-9.5912802E-001	-4.978048642954724E-002	3.498435911622073E+002	1.000000000000000E+000
-9.8307067E-001	-5.805087979680224E-002	3.546425910409744E+002	1.000000000000000E+000
-1.0070903E+000	-6.717569300575982E-002	3.594416909197389E+002	1.000000000000000E+000
-1.0310779E+000	-7.301105061058166E-002	3.642407907985034E+002	1.000000000000000E+000
-1.0550507E+000	-7.063996690840713E-002	3.690397906772705E+002	1.000000000000000E+000
-1.0790619E+000	-6.121974567040067E-002	3.738389905560325E+002	1.000000000000000E+000
-1.1030189E+000	-5.027768604062444E-002	3.786379904347996E+002	1.000000000000000E+000
-1.1270450E+000	-4.149470432369434E-002	3.834370903135641E+002	1.000000000000000E+000
-1.1510770E+000	-3.540700013710235E-002	3.882361901923287E+002	1.000000000000000E+000
-1.1750969E+000	-3.119764225018923E-002	3.930351900710957E+002	1.000000000000000E+000
-1.1990359E+000	-2.797222370413799E-002	3.978343899498577E+002	1.000000000000000E+000
-1.2230525E+000	-2.543091504383732E-002	4.026333898286248E+002	1.000000000000000E+000
-1.2471156E+000	-2.388722940599819E-002	4.074324897073893E+002	1.000000000000000E+000
-1.2710856E+000	-2.292191882629913E-002	4.122315895861539E+002	1.000000000000000E+000
-1.2950708E+000	-2.236190163480245E-002	4.170305894649209E+002	1.000000000000000E+000
-1.3190465E+000	-2.197240600365047E-002	4.218297893436829E+002	1.000000000000000E+000
-1.3381599E+000	-2.110714089022964E-002	4.262693892315292E+002	1.000000000000000E+000
-1.3141925E+000	-1.814898676610163E-002	4.310684891102937E+002	1.000000000000000E+000
-1.2901176E+000	-1.658100449314340E-002	4.358675889890583E+002	1.000000000000000E+000
-1.2661359E+000	-1.543952204889457E-002	4.406665888678253E+002	1.000000000000000E+000
-1.2421993E+000	-1.442933021709850E-002	4.454657887465874E+002	1.000000000000000E+000
-1.2181759E+000	-1.349202679882511E-002	4.502647886253544E+002	1.000000000000000E+000
-1.1942110E+000	-1.246900875045552E-002	4.550638885041190E+002	1.000000000000000E+000
-1.1702027E+000	-1.123829343030974E-002	4.598629883828835E+002	1.000000000000000E+000
-1.1461929E+000	-9.407143409616264E-003	4.646619882616505E+002	1.000000000000000E+000
-1.1222205E+000	-6.350090437759567E-003	4.694611881404126E+002	1.000000000000000E+000
-1.0980966E+000	-8.446397393100233E-004	4.742801880186744E+002	1.000000000000000E+000
-1.0741961E+000	9.703144196259700E-003	4.790791878974414E+002	1.000000000000000E+000
-1.0500778E+000	2.926870814156075E-002	4.838983877756982E+002	1.000000000000000E+000
-1.0260663E+000	5.814629910796731E-002	4.886973876544653E+002	1.000000000000000E+000
-1.0020974E+000	6.059115395658515E-002	4.934964875332298E+002	1.000000000000000E+000
-9.7804248E-001	3.667019275698158E-002	4.982955874119943E+002	1.000000000000000E+000
-9.5403904E-001	2.742573875108167E-002	5.030945872907614E+002	1.000000000000000E+000
-9.3005532E-001	2.158354190318132E-002	5.078937871695234E+002	1.000000000000000E+000
-9.0606946E-001	1.785498318463556E-002	5.126927870482905E+002	1.000000000000000E+000
-8.8203031E-001	1.625936263247713E-002	5.174918869270550E+002	1.000000000000000E+000
-8.5804766E-001	1.595747640515860E-002	5.222909868058196E+002	1.000000000000000E+000
-8.3408439E-001	1.597845156771038E-002	5.270899866845866E+002	1.000000000000000E+000
-8.1005228E-001	1.659874784559029E-002	5.318891865633486E+002	1.000000000000000E+000
-7.8606421E-001	1.754196734081054E-002	5.366881864421157E+002	1.000000000000000E+000
-7.6209342E-001	1.827286000446844E-002	5.414872863208802E+002	1.000000000000000E+000
-7.3809612E-001	1.917376566893168E-002	5.462863861996448E+002	1.000000000000000E+000
-7.1411461E-001	2.002193614795109E-002	5.510853860784118E+002	1.000000000000000E+000
-6.9009954E-001	2.107367239765251E-002	5.558845859571738E+002	1.000000000000000E+000
-6.6610110E-001	2.301562088317316E-002	5.606835858359409E+002	1.000000000000000E+000
-6.4213550E-001	2.484261183180381E-002	5.654826857147054E+002	1.000000000000000E+000
-6.1809838E-001	2.598344074570647E-002	5.702817855934700E+002	1.000000000000000E+000
-5.9409851E-001	2.550487961847648E-002	5.750807854722370E+002	1.000000000000000E+000
-5.7012981E-001	2.580495462755528E-002	5.798799853509991E+002	1.000000000000000E+000
-5.4613674E-001	2.668219181321463E-002	5.846789852297661E+002	1.000000000000000E+000
-5.2215558E-001	2.722757183414537E-002	5.894780851085306E+002	1.000000000000000E+000
-4.9816981E-001	2.695865965239241E-002	5.942771849872952E+002	1.000000000000000E+000
-4.7416532E-001	2.611749109895506E-002	5.990761848660622E+002	1.000000000000000E+000
-4.5013273E-001	2.484559429077696E-002	6.038753847448243E+002	1.000000000000000E+000
-4.2616427E-001	2.406511382651749E-002	6.086743846235913E+002	1.000000000000000E+000
-4.0211412E-001	2.344164062430433E-002	6.134734845023559E+002	1.000000000000000E+000
-3.7813818E-001	2.282193961448731E-002	6.182725843811204E+002	1.000000000000000E+000
-3.5420385E-001	2.168305814973678E-002	6.230715842598875E+002	1.000000000000000E+000
-3.3016598E-001	1.974189081868105E-002	6.278707841386495E+002	1.000000000000000E+000
-3.0622298E-001	1.844285014576472E-002	6.326697840174165E+002	1.000000000000000E+000
-2.8218663E-001	1.759897872735561E-002	6.374688838961811E+002	1.000000000000000E+000
-2.5820264E-001	1.733417686469890E-002	6.422679837749456E+002	1.000000000000000E+000
-2.3421887E-001	1.722018000822356E-002	6.470669836537127E+002	1.000000000000000E+000
-2.1022156E-001	1.695846782824610E-002	6.518661835324747E+002	1.000000000000000E+000
-1.8621656E-001	1.660933738464568E-002	6.566651834112417E+002	1.000000000000000E+000
-1.6219075E-001	1.629280081973178E-002	6.614642832900063E+002	1.000000000000000E+000
-1.3816756E-001	1.583488225103236E-002	6.662633831687708E+002	1.000000000000000E+000
-1.1418124E-001	1.490123725476170E-002	6.710623830475379E+002	1.000000000000000E+000
-9.1920562E-002	1.360671544081135E-002	6.755215829348890E+002	2.000000000000000E+000
-6.7926988E-002	1.202976233946233E-002	6.803206828136535E+002	2.000000000000000E+000
-4.3952852E-002	1.048194997494648E-002	6.851197826924181E+002	2.000000000000000E+000
-1.9932797E-002	9.264400456607036E-003	6.899187825711851E+002	2.000000000000000E+000
4.1072085E-003	8.439172191815669E-003	6.947179824499472E+002	2.000000000000000E+000
2.8013891E-002	7.937693112063091E-003	6.995169823287142E+002	2.000000000000000E+000
5.2063081E-002	7.648202342709992E-003	7.043160822074788E+002	2.000000000000000E+000
7.6080941E-002	7.459172128056690E-003	7.091151820862433E+002	2.000000000000000E+000
1.0006849E-001	7.318755300940477E-003	7.139141819650104E+002	2.000000000000000E+000
1.2408493E-001	7.195290008849164E-003	7.187133818437724E+002	2.000000000000000E+000
1.4806274E-001	7.039956517568793E-003	7.235123817225394E+002	2.000000000000000E+000
1.7200381E-001	6.911459516218285E-003	7.283114816013040E+002	2.000000000000000E+000
1.9598053E-001	6.794655469788441E-003	7.331105814800685E+002	2.000000000000000E+000
2.2005577E-001	6.704508295732006E-003	7.379095813588356E+002	2.000000000000000E+000
2.4404226E-001	6.669940235691951E-003	7.427087812375976E+002	2.000000000000000E+000
2.6805234E-001	6.649609437226089E-003	7.475077811163646E+002	2.000000000000000E+000
2.9203036E-001	6.730894111028706E-003	7.523068809951292E+002	2.000000000000000E+000
3.1601283E-001	6.836049053200260E-003	7.571059808738937E+002	2.000000000000000E+000
3.3984089E-001	7.111151886531331E-003	7.618749807534186E+002	2.000000000000000E+000
3.1775081E-001	5.133335900821785E-003	7.664646806374731E+002	2.000000000000000E+000
2.9359207E-001	4.018848136678757E-003	7.712837805157324E+002	2.000000000000000E+000
2.6959306E-001	3.179718975639398E-003	7.760827803944994E+002	2.000000000000000E+000
2.4561805E-001	2.499906074764132E-003	7.808819802732614E+002	2.000000000000000E+000
2.2163512E-001	1.921659314903580E-003	7.856809801520285E+002	2.000000000000000E+000
1.9762267E-001	1.452783548751384E-003	7.904800800307930E+002	2.000000000000000E+000
1.7363264E-001	1.062141070003471E-003	7.952791799095576E+002	2.000000000000000E+000
1.4966862E-001	7.206410716832611E-004	8.000781797883246E+002	2.000000000000000E+000
1.2565984E-001	4.254602222285530E-004	8.048773796670866E+002	2.000000000000000E+000
1.0165189E-001	1.724209131234078E-004	8.096763795458537E+002	2.000000000000000E+000
7.7700630E-002	-6.858874079013438E-005	8.144753794246208E+002	2.000000000000000E+000
5.3695656E-002	-2.706937079246240E-004	8.192745793033828E+002	2.000000000000000E+000
2.9684534E-002	-4.730458835484628E-004	8.240735791821498E+002	2.000000000000000E+000
5.6746784E-003	-7.169450717916005E-004	8.288727790609119E+002	2.000000000000000E+000
-1.8317778E-002	-1.022973482711124E-003	8.336717789396789E+002	2.000000000000000E+000
-4.2282205E-002	-1.541326099288937E-003	8.384707788184460E+002	2.000000000000000E+000
-6.6278279E-002	-2.449586006891012E-003	8.432699786972080E+002	2.000000000000000E+000
-9.0261802E-002	-3.996258931950672E-003	8.480689785759751E+002	2.000000000000000E+000
-1.1424620E-001	-6.303640412321926E-003	8.528681784547371E+002	2.000000000000000E+000
-1.3816288E-001	-8.802122646394184E-003	8.576671783335041E+002	2.000000000000000E+000
-1.6220181E-001	-1.021112807148900E-002	8.624662782122687E+002	2.000000000000000E+000
-1.8636240E-001	-1.045316018300377E-002	8.672853780905280E+002	2.000000000000000E+000
-2.1040665E-001	-1.099036687331978E-002	8.720843779692950E+002	2.000000000000000E+000
-2.3436216E-001	-1.168593333707013E-002	8.768835778480570E+002	2.000000000000000E+000
-2.5837097E-001	-1.227088586279179E-002	8.816825777268241E+002	2.000000000000000E+000
-2.8240803E-001	-1.310083132598580E-002	8.864815776055912E+002	2.000000000000000E+000
-3.0638158E-001	-1.411951311308016E-002	8.912807774843532E+002	2.000000000000000E+000
-3.3035719E-001	-1.501243801596364E-002	8.960797773631202E+002	2.000000000000000E+000
-3.5436937E-001	-1.620569271271846E-002	9.008788772418848E+002	2.000000000000000E+000
-3.7835744E-001	-1.729570537535770E-002	9.056779771206493E+002	2.000000000000000E+000
-4.0234694E-001	-1.872911250000692E-002	9.104769769994164E+002	2.000000000000000E+000
-4.2633748E-001	-2.041219915273916E-002	9.152761768781784E+002	2.000000000000000E+000
-4.5031533E-001	-2.233124623954708E-002	9.200751767569454E+002	2.000000000000000E+000
-4.7433195E-001	-2.455383501978595E-002	9.248743766357074E+002	2.000000000000000E+000
-4.9831450E-001	-2.634012500402788E-002	9.296733765144745E+002	2.000000000000000E+000
-5.2225745E-001	-2.774611593829718E-002	9.344724763932390E+002	2.000000000000000E+000
-5.4627556E-001	-2.883555438045327E-002	9.392715762720036E+002	2.000000000000000E+000
-5.7029539E-001	-2.931433858755406E-002	9.440705761507706E+002	2.000000000000000E+000
-5.9426051E-001	-2.889094186330088E-002	9.488697760295327E+002	2.000000000000000E+000
-6.1830217E-001	-2.866183518819609E-002	9.536687759082997E+002	2.000000000000000E+000
-6.4230227E-001	-2.850039325503495E-002	9.584677757870668E+002	2.000000000000000E+000
-6.6626012E-001	-2.835529801027126E-002	9.632669756658288E+002	2.000000000000000E+000
-6.9029140E-001	-2.813183487542900E-002	9.680659755445959E+002	2.000000000000000E+000
-7.1430433E-001	-2.764835959099554E-002	9.728650754233604E+002	2.000000000000000E+000
-7.3826402E-001	-2.719547933198788E-002	9.776641753021249E+002	2.000000000000000E+000
-7.6227689E-001	-2.721575519086916E-002	9.824631751808920E+002	2.000000000000000E+000
-7.8627712E-001	-2.780910776510982E-002	9.872623750596540E+002	2.000000000000000E+000
-8.1029129E-001	-2.920877640510433E-002	9.920613749384211E+002	2.000000000000000E+000
-8.3431178E-001	-3.118047954450209E-002	9.968605748171831E+002	2.000000000000000E+000
-8.5828185E-001	-3.314783903210505E-002	1.001659574695950E+003	2.000000000000000E+000
-8.8225526E-001	-3.488668539837769E-002	1.006458674574715E+003	2.000000000000000E+000
-9.0623993E-001	-3.720090095990680E-002	1.011257774453479E+003	2.000000000000000E+000
-9.3025607E-001	-4.094670790056504E-002	1.016056774332246E+003	2.000000000000000E+000
-9.5415366E-001	-4.604017911645331E-002	1.020855874211011E+003	2.000000000000000E+000
-9.7819370E-001	-5.356530884445532E-002	1.025654974089775E+003	2.000000000000000E+000
-1.0021744E+000	-6.207562221874746E-002	1.030454073968540E+003	2.000000000000000E+000
-1.0261719E+000	-6.895351662699700E-002	1.035253173847304E+003	2.000000000000000E+000
-1.0501633E+000	-6.885959965265565E-002	1.040052173726071E+003	2.000000000000000E+000
-1.0741311E+000	-6.099759583538411E-002	1.044851273604836E+003	2.000000000000000E+000
-1.0981435E+000	-5.038269325434025E-002	1.049650373483601E+003	2.000000000000000E+000
-1.1221484E+000	-4.112117688906486E-002	1.054449373362368E+003	2.000000000000000E+000
-1.1461444E+000	-3.451295190912098E-002	1.059248573241130E+003	2.000000000000000E+000
-1.1701581E+000	-2.996493407415313E-002	1.064047573119897E+003	2.000000000000000E+000
-1.1941274E+000	-2.661189363592803E-002	1.068846672998661E+003	2.000000000000000E+000
-1.2181897E+000	-2.390448557098910E-002	1.073645772877426E+003	2.000000000000000E+000
-1.2421410E+000	-2.203524469906389E-002	1.078444772756193E+003	2.000000000000000E+000
-1.2661129E+000	-2.085691935260303E-002	1.083243972634955E+003	2.000000000000000E+000
-1.2901254E+000	-2.012526368827389E-002	1.088042972513722E+003	2.000000000000000E+000
-1.3141285E+000	-1.960647344161243E-002	1.092841972392489E+003	2.000000000000000E+000
-1.3381261E+000	-1.925771889807930E-002	1.097641172271251E+003	2.000000000000000E+000
-1.3181131E+000	-1.605393941677336E-002	1.102260772154550E+003	2.000000000000000E+000
-1.2940683E+000	-1.449123437620928E-002	1.107059972033312E+003	2.000000000000000E+000
-1.2701690E+000	-1.334322615296422E-002	1.111858971912079E+003	2.000000000000000E+000
-1.2461412E+000	-1.242371424242594E-002	1.116658071790844E+003	2.000000000000000E+000
-1.2221631E+000	-1.152942845350519E-002	1.121457171669608E+003	2.000000000000000E+000
-1.1981647E+000	-1.059450764812757E-002	1.126256171548375E+003	2.000000000000000E+000
-1.1741750E+000	-9.357656631843153E-003	1.131055371427137E+003	2.000000000000000E+000
-1.1501819E+000	-7.566555976076257E-003	1.135854371305904E+003	2.000000000000000E+000
-1.1261082E+000	-4.514220109681534E-003	1.140663471184416E+003	2.000000000000000E+000
-1.1021146E+000	9.616768289445721E-004	1.145472571062928E+003	2.000000000000000E+000
-1.0779701E+000	1.155405999554632E-002	1.150291570941190E+003	2.000000000000000E+000
-1.0540241E+000	3.060402308723764E-002	1.155090770819952E+003	2.000000000000000E+000
-1.0300251E+000	5.796919919628563E-002	1.159889770698719E+003	2.000000000000000E+000
-1.0060227E+000	5.833519124608511E-002	1.164688870577484E+003	2.000000000000000E+000
-9.8204172E-001	3.791987444163247E-002	1.169487970456248E+003	2.000000000000000E+000
-9.5803565E-001	2.897535947831487E-002	1.174286970335015E+003	2.000000000000000E+000
-9.3405086E-001	2.280332679295910E-002	1.179086170213777E+003	2.000000000000000E+000
-9.1007489E-001	1.901202525704887E-002	1.183885170092544E+003	2.000000000000000E+000
-8.8603765E-001	1.668492142728602E-002	1.188684269971309E+003	2.000000000000000E+000
-8.6208528E-001	1.600211092665295E-002	1.193483369850073E+003	2.000000000000000E+000
-8.3805174E-001	1.616379383029071E-002	1.198282369728840E+003	2.000000000000000E+000
-8.1406116E-001	1.667858462222661E-002	1.203081569607602E+003	2.000000000000000E+000
-7.9005283E-001	1.736921422466503E-002	1.207880569486370E+003	2.000000000000000E+000
-7.6606423E-001	1.813435969385910E-002	1.212679669365134E+003	2.000000000000000E+000
-7.4201590E-001	1.888730982265735E-002	1.217478769243899E+003	2.000000000000000E+000
-7.1806145E-001	1.976392273300134E-002	1.222277769122666E+003	2.000000000000000E+000
-6.9407129E-001	2.071016238919987E-002	1.227076969001428E+003	2.000000000000000E+000
-6.7005908E-001	2.228782056049983E-002	1.231875968880195E+003	2.000000000000000E+000
-6.4610058E-001	2.386734673560237E-002	1.236675068758959E+003	2.000000000000000E+000
-6.2210113E-001	2.494707198582846E-002	1.241474168637724E+003	2.000000000000000E+000
-5.9808791E-001	2.479974063807078E-002	1.246273168516491E+003	2.000000000000000E+000
-5.7409120E-001	2.517778484959604E-002	1.251072368395253E+003	2.000000000000000E+000
-5.5007958E-001	2.590614626759047E-002	1.255871368274020E+003	2.000000000000000E+000
-5.2610874E-001	2.676360217846224E-002	1.260670468152784E+003	2.000000000000000E+000
-5.0214267E-001	2.675712860850395E-002	1.265469568031549E+003	2.000000000000000E+000
-4.7813517E-001	2.559631059826356E-002	1.270268567910316E+003	2.000000000000000E+000
-4.5410851E-001	2.432717646782601E-002	1.275067767789078E+003	2.000000000000000E+000
-4.3012622E-001	2.301353019321140E-002	1.279866767667845E+003	2.000000000000000E+000
-4.0613040E-001	2.229626196044071E-002	1.284665867546610E+003	2.000000000000000E+000
-3.8213494E-001	2.207948140340155E-002	1.289464967425374E+003	2.000000000000000E+000
-3.5814059E-001	2.125807139796024E-002	1.294263967304141E+003	2.000000000000000E+000
-3.3412263E-001	2.028853989925869E-002	1.299063167182903E+003	2.000000000000000E+000
-3.1017822E-001	1.899270753480728E-002	1.303862167061670E+003	2.000000000000000E+000
-2.8618819E-001	1.791491953868232E-002	1.308661266940435E+003	2.000000000000000E+000
-2.6215872E-001	1.717405531886967E-002	1.313460366819199E+003	2.000000000000000E+000
-2.3817725E-001	1.679840374829317E-002	1.318259366697966E+003	2.000000000000000E+000
-2.1421304E-001	1.660477217601494E-002	1.323058566576728E+003	2.000000000000000E+000
-1.9017854E-001	1.651121732314770E-002	1.327857566455496E+003	2.000000000000000E+000
-1.6618705E-001	1.613259698523548E-002	1.332656666334260E+003	2.000000000000000E+000
-1.4222527E-001	1.549163812010115E-002	1.337455766213025E+003	2.000000000000000E+000
-1.1818971E-001	1.442506389184001E-002	1.342254766091792E+003	2.000000000000000E+000
-9.5856644E-002	1.312784588636516E-002	1.346713965979143E+003	3.000000000000000E+000
-7.1881816E-002	1.152825646086329E-002	1.351512965857910E+003	3.000000000000000E+000
-4.7901452E-002	9.966532036315284E-003	1.356312165736672E+003	3.000000000000000E+000
-2.3917703E-002	8.695545851948844E-003	1.361111165615439E+003	3.000000000000000E+000
4.0220104E-005	7.800014488961352E-003	1.365910265494203E+003	3.000000000000000E+000
2.4018582E-002	7.232592410519902E-003	1.370709365372968E+003	3.000000000000000E+000
4.8048180E-002	6.902503968578680E-003	1.375508365251735E+003	3.000000000000000E+000
7.2115771E-002	6.720631330563390E-003	1.380307565130497E+003	3.000000000000000E+000
9.6100785E-002	6.604370970332826E-003	1.385106565009264E+003	3.000000000000000E+000
1.2003662E-001	6.527690160630158E-003	1.389905664888029E+003	3.000000000000000E+000
1.4401838E-001	6.450763762460746E-003	1.394704764766793E+003	3.000000000000000E+000
1.6800615E-001	6.376108442261053E-003	1.399503764645560E+003	3.000000000000000E+000
1.9211240E-001	6.304953706634480E-003	1.404302964524322E+003	3.000000000000000E+000
2.1607129E-001	6.251306259844145E-003	1.409101964403089E+003	3.000000000000000E+000
2.4006990E-001	6.225302671801353E-003	1.413901064281854E+003	3.000000000000000E+000
2.6404259E-001	6.249627272800123E-003	1.418700164160618E+003	3.000000000000000E+000
2.8798792E-001	6.326106569387591E-003	1.423499164039386E+003	3.000000000000000E+000
3.1195977E-001	6.481055406098044E-003	1.428298363918148E+003	3.000000000000000E+000
3.3597597E-001	6.729966193852577E-003	1.433097363796915E+003	3.000000000000000E+000
3.2173589E-001	5.143143163712546E-003	1.437656963681729E+003	3.000000000000000E+000
2.9747114E-001	4.036179331002934E-003	1.442496063559483E+003	3.000000000000000E+000
2.7350262E-001	3.243846070123544E-003	1.447295163438248E+003	3.000000000000000E+000
2.4950062E-001	2.583607020310755E-003	1.452094163317015E+003	3.000000000000000E+000
2.2550330E-001	2.043634263786454E-003	1.456893363195777E+003	3.000000000000000E+000
2.0148601E-001	1.570360287744130E-003	1.461692363074544E+003	3.000000000000000E+000
1.7753784E-001	1.151731125064560E-003	1.466491462953309E+003	3.000000000000000E+000
1.5354696E-001	7.948224645138618E-004	1.471290562832073E+003	3.000000000000000E+000
1.2953097E-001	4.867249153862442E-004	1.476089562710840E+003	3.000000000000000E+000
1.0554551E-001	2.027081885490811E-004	1.480888762589602E+003	3.000000000000000E+000
8.1572175E-002	-3.625599878829809E-005	1.485687762468369E+003	3.000000000000000E+000
5.7572100E-002	-2.539788446679781E-004	1.490486862347134E+003	3.000000000000000E+000
3.3572637E-002	-4.648025116586801E-004	1.495285962225898E+003	3.000000000000000E+000
9.5810425E-003	-7.136338987087983E-004	1.500084962104665E+003	3.000000000000000E+000
-1.4446011E-002	-1.033333581306708E-003	1.504884161983427E+003	3.000000000000000E+000
-3.8381156E-002	-1.495667115208127E-003	1.509683161862195E+003	3.000000000000000E+000
-6.2384624E-002	-2.327696731096542E-003	1.514482261740959E+003	3.000000000000000E+000
-8.6377949E-002	-3.763421361255175E-003	1.519281361619724E+003	3.000000000000000E+000
-1.1033517E-001	-5.919094343301207E-003	1.524080361498491E+003	3.000000000000000E+000
-1.3427924E-001	-8.403854633896896E-003	1.528879561377253E+003	3.000000000000000E+000
-1.5828802E-001	-9.959091449749298E-003	1.533678561256020E+003	3.000000000000000E+000
-1.8249747E-001	-1.046403611863972E-002	1.538497661134279E+003	3.000000000000000E+000
-2.0649903E-001	-1.098901165985605E-002	1.543296761013044E+003	3.000000000000000E+000
-2.3050654E-001	-1.159300207158563E-002	1.548095760891811E+003	3.000000000000000E+000
-2.5448903E-001	-1.213683059132581E-002	1.552894960770573E+003	3.000000000000000E+000
-2.7850506E-001	-1.288535869649987E-002	1.557693960649340E+003	3.000000000000000E+000
-3.0247459E-001	-1.364791718081418E-002	1.562492960528107E+003	3.000000000000000E+000
-3.2648465E-001	-1.436402740248940E-002	1.567292160406869E+003	3.000000000000000E+000
-3.5044247E-001	-1.546829028182842E-002	1.572091160285636E+003	3.000000000000000E+000
-3.7446740E-001	-1.675428996639232E-002	1.576890360164398E+003	3.000000000000000E+000
-3.9845800E-001	-1.814309193432240E-002	1.581689360043165E+003	3.000000000000000E+000
-4.2241427E-001	-1.985910025331206E-002	1.586488459921929E+003	3.000000000000000E+000
-4.4643542E-001	-2.183456683627502E-002	1.591287559800694E+003	3.000000000000000E+000
-4.7041321E-001	-2.356668780391508E-002	1.596086559679461E+003	3.000000000000000E+000
-4.9445307E-001	-2.566033956009255E-002	1.600885759558223E+003	3.000000000000000E+000
-5.1841408E-001	-2.717815645940835E-002	1.605684759436990E+003	3.000000000000000E+000
-5.4242778E-001	-2.787946253078211E-002	1.610483859315755E+003	3.000000000000000E+000
-5.6640410E-001	-2.821809701255129E-002	1.615282959194519E+003	3.000000000000000E+000
-5.9042144E-001	-2.807386157782887E-002	1.620081959073286E+003	3.000000000000000E+000
-6.1438584E-001	-2.786547967994085E-002	1.624881158952048E+003	3.000000000000000E+000
-6.3836831E-001	-2.763268840974387E-002	1.629680158830815E+003	3.000000000000000E+000
-6.6239160E-001	-2.733306486377779E-002	1.634479258709580E+003	3.000000000000000E+000
-6.8638659E-001	-2.707569950599181E-002	1.639278358588344E+003	3.000000000000000E+000
-7.1036226E-001	-2.638178627648713E-002	1.644077358467111E+003	3.000000000000000E+000
-7.3441184E-001	-2.598946756467349E-002	1.648876558345873E+003	3.000000000000000E+000
-7.5834078E-001	-2.566182924737603E-002	1.653675558224641E+003	3.000000000000000E+000
-7.8237355E-001	-2.604170435856146E-002	1.658474658103405E+003	3.000000000000000E+000
-8.0637652E-001	-2.723996722838443E-002	1.663273757982170E+003	3.000000000000000E+000
-8.3040643E-001	-2.914423049668313E-002	1.668072757860937E+003	3.000000000000000E+000
-8.5438687E-001	-3.104933208808133E-002	1.672871957739699E+003	3.000000000000000E+000
-8.7835765E-001	-3.319378228290024E-002	1.677670957618466E+003	3.000000000000000E+000
-9.0237731E-001	-3.546246025610411E-002	1.682470057497230E+003	3.000000000000000E+000
-9.2630243E-001	-3.862841542078466E-002	1.687269157375995E+003	3.000000000000000E+000
-9.5031714E-001	-4.341237366177308E-002	1.692068157254762E+003	3.000000000000000E+000
-9.7427928E-001	-5.010400350757833E-002	1.696867357133524E+003	3.000000000000000E+000
-9.9828911E-001	-5.849261719009102E-002	1.701666357012291E+003	3.000000000000000E+000
-1.0222763E+000	-6.550115508922105E-002	1.706465356891058E+003	3.000000000000000E+000
-1.0462607E+000	-6.677479115198626E-002	1.711264556769820E+003	3.000000000000000E+000
-1.0702651E+000	-6.047850945761724E-002	1.716063556648587E+003	3.000000000000000E+000
-1.0942699E+000	-5.029594400568160E-002	1.720862756527349E+003	3.000000000000000E+000
-1.1182491E+000	-4.079918078328482E-002	1.725661756406116E+003	3.000000000000000E+000
-1.1422671E+000	-3.383370412987702E-002	1.730460756284883E+003	3.000000000000000E+000
-1.1662512E+000	-2.902231842454711E-002	1.735259956163645E+003	3.000000000000000E+000
-1.1901857E+000	-2.553931322178954E-002	1.740058956042412E+003	3.000000000000000E+000
-1.2142361E+000	-2.274059102946766E-002	1.744858055921177E+003	3.000000000000000E+000
-1.2382365E+000	-2.072394656451929E-002	1.749657155799941E+003	3.000000000000000E+000
-1.2622118E+000	-1.941647946023086E-002	1.754456155678708E+003	3.000000000000000E+000
-1.2862422E+000	-1.858799332552723E-002	1.759255355557470E+003	3.000000000000000E+000
-1.3102084E+000	-1.801197243090961E-002	1.764054355436238E+003	3.000000000000000E+000
-1.3342041E+000	-1.760163491198438E-002	1.768853455315002E+003	3.000000000000000E+000
-1.3221371E+000	-1.475560622431793E-002	1.773452955198809E+003	3.000000000000000E+000
-1.2981515E+000	-1.313538252398094E-002	1.778252055077573E+003	3.000000000000000E+000
-1.2741375E+000	-1.202927551695829E-002	1.783051154956338E+003	3.000000000000000E+000
-1.2501259E+000	-1.114189136576262E-002	1.787850154835105E+003	3.000000000000000E+000
-1.2261424E+000	-1.032121014529723E-002	1.792649354713867E+003	3.000000000000000E+000
-1.2021259E+000	-9.437391588299655E-003	1.797448354592634E+003	3.000000000000000E+000
-1.1781832E+000	-8.288386954385552E-003	1.802247454471399E+003	3.000000000000000E+000
-1.1542103E+000	-6.574667151872160E-003	1.807046554350163E+003	3.000000000000000E+000
-1.1299690E+000	-3.668705605713377E-003	1.811885554227920E+003	3.000000000000000E+000
-1.1059850E+000	1.614554047804230E-003	1.816684754106682E+003	3.000000000000000E+000
-1.0818464E+000	1.169412213329081E-002	1.821503753984944E+003	3.000000000000000E+000
-1.0578697E+000	2.991137356464507E-002	1.826302853863708E+003	3.000000000000000E+000
-1.0339425E+000	5.613146016169387E-002	1.831101953742473E+003	3.000000000000000E+000
-1.0099561E+000	5.879764352257777E-002	1.835900953621240E+003	3.000000000000000E+000
-9.8588634E-001	3.961551880839864E-002	1.840700153500002E+003	3.000000000000000E+000
-9.6191716E-001	3.050906687490257E-002	1.845499153378769E+003	3.000000000000000E+000
-9.3794888E-001	2.384219707553774E-002	1.850298253257533E+003	3.000000000000000E+000
-9.1394919E-001	1.973340831155301E-002	1.855097353136298E+003	3.000000000000000E+000
-8.8995087E-001	1.731739925046909E-002	1.859896353015065E+003	3.000000000000000E+000
-8.6596966E-001	1.595444037724716E-002	1.864695552893827E+003	3.000000000000000E+000
-8.4197754E-001	1.609613184984503E-002	1.869494552772594E+003	3.000000000000000E+000
-8.1795126E-001	1.634216722417151E-002	1.874293652651359E+003	3.000000000000000E+000
-7.9393280E-001	1.706822718522150E-002	1.879092752530123E+003	3.000000000000000E+000
-7.6996940E-001	1.782366756667625E-002	1.883891752408890E+003	3.000000000000000E+000
-7.4592960E-001	1.886558286645584E-002	1.888690952287652E+003	3.000000000000000E+000
-7.2197539E-001	1.949703737369018E-002	1.893489952166419E+003	3.000000000000000E+000
-6.9796026E-001	2.075553004581848E-002	1.898289052045184E+003	3.000000000000000E+000
-6.7398667E-001	2.201127003859349E-002	1.903088151923948E+003	3.000000000000000E+000
-6.4999336E-001	2.373456291969467E-002	1.907887151802715E+003	3.000000000000000E+000
-6.2601513E-001	2.459882264254631E-002	1.912686351681477E+003	3.000000000000000E+000
-6.0201591E-001	2.469605651365747E-002	1.917485351560244E+003	3.000000000000000E+000
-5.7803184E-001	2.480584746496561E-002	1.922284451439009E+003	3.000000000000000E+000
-5.5404830E-001	2.520669565328582E-002	1.927083551317774E+003	3.000000000000000E+000
-5.3004366E-001	2.571870305004170E-002	1.931882551196541E+003	3.000000000000000E+000
-5.0607455E-001	2.600325679970394E-002	1.936681751075303E+003	3.000000000000000E+000
-4.8207951E-001	2.515544220958274E-002	1.941480750954070E+003	3.000000000000000E+000
-4.5806617E-001	2.362655726784002E-002	1.946279850832834E+003	3.000000000000000E+000
-4.3403426E-001	2.235573426796050E-002	1.951078950711599E+003	3.000000000000000E+000
-4.1003528E-001	2.164696028842561E-002	1.955877950590366E+003	3.000000000000000E+000
-3.8606974E-001	2.134451876664245E-002	1.960677150469128E+003	3.000000000000000E+000
-3.6207709E-001	2.100382126456485E-002	1.965476150347895E+003	3.000000000000000E+000
-3.3807006E-001	2.024377272965044E-002	1.970275250226659E+003	3.000000000000000E+000
-3.1410152E-001	1.921603333507504E-002	1.975074350105424E+003	3.000000000000000E+000
-2.9008403E-001	1.816205348190700E-002	1.979873349984191E+003	3.000000000000000E+000
-2.6608440E-001	1.727217841851725E-002	1.984672549862953E+003	3.000000000000000E+000
-2.4210082E-001	1.678884838369327E-002	1.989471549741720E+003	3.000000000000000E+000
-2.1809037E-001	1.656729127647674E-002	1.994270649620485E+003	3.000000000000000E+000
-1.9406772E-001	1.617026504323463E-002	1.999069749499249E+003	3.000000000000000E+000
-1.7010859E-001	1.585833594237840E-002	2.003868749378016E+003	3.000000000000000E+000
-1.4608620E-001	1.509418805043237E-002	2.008667949256778E+003	3.000000000000000E+000
-1.2211052E-001	1.404359477823985E-002	2.013466949135545E+003	3.000000000000000E+000
-9.9888898E-002	1.271250612477831E-002	2.017906149023402E+003	4.000000000000000E+000
-7.5886041E-002	1.109654893667031E-002	2.022705148902169E+003	4.000000000000000E+000
-5.1902287E-002	9.508667591998345E-003	2.027504348780931E+003	4.000000000000000E+000
-2.7903039E-002	8.215828766901655E-003	2.032303348659698E+003	4.000000000000000E+000
-3.9968635E-003	7.269529701858894E-003	2.037102448538462E+003	4.000000000000000E+000
2.0024974E-002	6.653426822339339E-003	2.041901548417227E+003	4.000000000000000E+000
4.4022087E-002	6.242468873938548E-003	2.046700548295994E+003	4.000000000000000E+000
6.8067819E-002	5.983281377635628E-003	2.051499748174756E+003	4.000000000000000E+000
9.2061110E-002	5.773963822121048E-003	2.056298748053523E+003	4.000000000000000E+000
1.1608940E-001	5.642246770747525E-003	2.061097847932288E+003	4.000000000000000E+000
1.4001332E-001	5.534732289881029E-003	2.065896947811052E+003	4.000000000000000E+000
1.6400193E-001	5.439361500344710E-003	2.070695947689819E+003	4.000000000000000E+000
1.8808313E-001	5.415545714649000E-003	2.075495147568581E+003	4.000000000000000E+000
2.1211122E-001	5.420955364485993E-003	2.080294147447348E+003	4.000000000000000E+000
2.3606303E-001	5.455169035610052E-003	2.085093247326113E+003	4.000000000000000E+000
2.6000610E-001	5.521146063934411E-003	2.089892347204877E+003	4.000000000000000E+000
2.8404081E-001	5.637531608253105E-003	2.094691347083644E+003	4.000000000000000E+000
3.0808058E-001	5.854985565471121E-003	2.099490546962421E+003	4.000000000000000E+000
3.3207238E-001	6.139893112581427E-003	2.104289546841173E+003	4.000000000000000E+000
3.2573566E-001	4.912421112109830E-003	2.108849146725988E+003	4.000000000000000E+000
3.0162603E-001	3.844643548691171E-003	2.113668146604250E+003	4.000000000000000E+000
2.7763498E-001	3.092278585603028E-003	2.118467246483015E+003	4.000000000000000E+000
2.5363222E-001	2.481184480787709E-003	2.123266346361779E+003	4.000000000000000E+000
2.2962001E-001	1.973484128932987E-003	2.128065346240546E+003	4.000000000000000E+000
2.0563371E-001	1.535826172182918E-003	2.132864546119323E+003	4.000000000000000E+000
1.8160711E-001	1.145380572577575E-003	2.137663545998075E+003	4.000000000000000E+000
1.5767254E-001	7.970948562223169E-004	2.142462645876840E+003	4.000000000000000E+000
1.3366786E-001	4.825035348877955E-004	2.147261745755604E+003	4.000000000000000E+000
1.0966054E-001	1.982746845113101E-004	2.152060745634371E+003	4.000000000000000E+000
8.5652187E-002	-5.209753669917899E-005	2.156859945513133E+003	4.000000000000000E+000
6.1682247E-002	-2.907413289113422E-004	2.161658945391900E+003	4.000000000000000E+000
3.7690915E-002	-5.259654875224926E-004	2.166458045270665E+003	4.000000000000000E+000
1.3731316E-002	-7.715467935814560E-004	2.171257145149430E+003	4.000000000000000E+000
-1.0293612E-002	-1.079078206683647E-003	2.176056145028197E+003	4.000000000000000E+000
-3.4309208E-002	-1.520954598299484E-003	2.180855344906973E+003	4.000000000000000E+000
-5.8292534E-002	-2.252984572774947E-003	2.185654344785726E+003	4.000000000000000E+000
-8.2274757E-002	-3.518829744319496E-003	2.190453444664498E+003	4.000000000000000E+000
-1.0622629E-001	-5.510221982386404E-003	2.195252544543269E+003	4.000000000000000E+000
-1.3019326E-001	-7.995602781562319E-003	2.200051544422022E+003	4.000000000000000E+000
-1.5414901E-001	-9.772209684225153E-003	2.204850744300784E+003	4.000000000000000E+000
-1.7838705E-001	-1.039344712758181E-002	2.209669744179060E+003	4.000000000000000E+000
-2.0237896E-001	-1.090483465564747E-002	2.214468844057817E+003	4.000000000000000E+000
-2.2640531E-001	-1.149370591030793E-002	2.219267943936575E+003	4.000000000000000E+000
-2.5036487E-001	-1.210199492209268E-002	2.224066943815356E+003	4.000000000000000E+000
-2.7438834E-001	-1.272955039708007E-002	2.228866143694104E+003	4.000000000000000E+000
-2.9840901E-001	-1.364089819537200E-002	2.233665143572871E+003	4.000000000000000E+000
-3.2240626E-001	-1.457058709188515E-002	2.238464243451635E+003	4.000000000000000E+000
-3.4634486E-001	-1.570723041292285E-002	2.243263343330400E+003	4.000000000000000E+000
-3.7034923E-001	-1.660962803133548E-002	2.248062343209167E+003	4.000000000000000E+000
-3.9435315E-001	-1.794277885709644E-002	2.252861543087929E+003	4.000000000000000E+000
-4.1833135E-001	-1.929970118803209E-002	2.257660542966703E+003	4.000000000000000E+000
-4.4232664E-001	-2.093815225552664E-002	2.262459642845461E+003	4.000000000000000E+000
-4.6634790E-001	-2.273313160217527E-002	2.267258742724225E+003	4.000000000000000E+000
-4.9031994E-001	-2.478093015150934E-002	2.272057742603000E+003	4.000000000000000E+000
-5.1432818E-001	-2.610667110098708E-002	2.276856942481754E+003	4.000000000000000E+000
-5.3833508E-001	-2.716227045336571E-002	2.281655942360521E+003	4.000000000000000E+000
-5.6230271E-001	-2.760945686843358E-002	2.286455042239286E+003	4.000000000000000E+000
-5.8631396E-001	-2.778788103775885E-002	2.291254142118050E+003	4.000000000000000E+000
-6.1031556E-001	-2.712804352803383E-002	2.296053141996817E+003	4.000000000000000E+000
-6.3432038E-001	-2.725081778524230E-002	2.300852341875579E+003	4.000000000000000E+000
-6.5828794E-001	-2.683127812736053E-002	2.305651341754347E+003	4.000000000000000E+000
-6.8229765E-001	-2.626358725230413E-002	2.310450441633111E+003	4.000000000000000E+000
-7.0628500E-001	-2.550631770658229E-002	2.315249541511876E+003	4.000000000000000E+000
-7.3026919E-001	-2.527039389172475E-002	2.320048541390643E+003	4.000000000000000E+000
-7.5427854E-001	-2.495936756317929E-002	2.324847741269419E+003	4.000000000000000E+000
-7.7827132E-001	-2.516030049312629E-002	2.329646741148172E+003	4.000000000000000E+000
-8.0228466E-001	-2.621956743669913E-002	2.334445841026936E+003	4.000000000000000E+000
-8.2630646E-001	-2.802419769414033E-002	2.339244940905715E+003	4.000000000000000E+000
-8.5031545E-001	-2.993907416667044E-002	2.344043940784468E+003	4.000000000000000E+000
-8.7428355E-001	-3.166154510702723E-002	2.348843140663230E+003	4.000000000000000E+000
-8.9825672E-001	-3.378472390981691E-002	2.353642140542011E+003	4.000000000000000E+000
-9.2225075E-001	-3.676469251752722E-002	2.358441240420769E+003	4.000000000000000E+000
-9.4625437E-001	-4.127152757735009E-002	2.363240340299526E+003	4.000000000000000E+000
-9.7022009E-001	-4.765048126934013E-002	2.368039340178293E+003	4.000000000000000E+000
-9.9419320E-001	-5.525019175748935E-002	2.372838540057055E+003	4.000000000000000E+000
-1.0181971E+000	-6.314014075028285E-002	2.377637539935822E+003	4.000000000000000E+000
-1.0421919E+000	-6.557763432183372E-002	2.382436639814594E+003	4.000000000000000E+000
-1.0661886E+000	-6.067372349306299E-002	2.387235739693358E+003	4.000000000000000E+000
-1.0901840E+000	-5.099934554667285E-002	2.392034739572118E+003	4.000000000000000E+000
-1.1141567E+000	-4.144288696770559E-002	2.396833839450890E+003	4.000000000000000E+000
-1.1381394E+000	-3.408429733173421E-002	2.401632939329655E+003	4.000000000000000E+000
-1.1621820E+000	-2.904308986688531E-002	2.406431939208414E+003	4.000000000000000E+000
-1.1861526E+000	-2.541093294674529E-002	2.411231139087176E+003	4.000000000000000E+000
-1.2101841E+000	-2.253993511104391E-002	2.416030138965958E+003	4.000000000000000E+000
-1.2341475E+000	-2.034875975892109E-002	2.420829238844708E+003	4.000000000000000E+000
-1.2581685E+000	-1.893700714116969E-002	2.425628338723473E+003	4.000000000000000E+000
-1.2821679E+000	-1.798018475357219E-002	2.430427338602254E+003	4.000000000000000E+000
-1.3061290E+000	-1.735326796828168E-002	2.435226538481002E+003	4.000000000000000E+000
-1.3301471E+000	-1.688273559992842E-002	2.440025538359769E+003	4.000000000000000E+000
-1.3261043E+000	-1.439637725020787E-002	2.444645138243068E+003	4.000000000000000E+000
-1.3021457E+000	-1.269760233502593E-002	2.449444238121832E+003	4.000000000000000E+000
-1.2781595E+000	-1.160079742110781E-002	2.454243338000597E+003	4.000000000000000E+000
-1.2541815E+000	-1.071721011568955E-002	2.459042337879364E+003	4.000000000000000E+000
-1.2301185E+000	-9.937675400265356E-003	2.463841537758126E+003	4.000000000000000E+000
-1.2061334E+000	-9.083897876394881E-003	2.468640537636893E+003	4.000000000000000E+000
-1.1821603E+000	-7.981015338559900E-003	2.473439637515658E+003	4.000000000000000E+000
-1.1581730E+000	-6.350507439088257E-003	2.478238737394422E+003	4.000000000000000E+000
-1.1339729E+000	-3.619935449126734E-003	2.483077737272193E+003	4.000000000000000E+000
-1.1100354E+000	1.321988409798197E-003	2.487876837150943E+003	4.000000000000000E+000
-1.0858576E+000	1.079654694930016E-002	2.492695937029202E+003	4.000000000000000E+000
-1.0619087E+000	2.769637024517946E-002	2.497495036907967E+003	4.000000000000000E+000
-1.0379214E+000	5.277453685578515E-002	2.502294136786732E+003	4.000000000000000E+000
-1.0139656E+000	5.917049617487569E-002	2.507093136665499E+003	4.000000000000000E+000
-9.8991591E-001	4.070084092425796E-002	2.511892236544263E+003	4.000000000000000E+000
-9.6594501E-001	3.154003632845163E-002	2.516691336423028E+003	4.000000000000000E+000
-9.4196665E-001	2.477473476579573E-002	2.521490336301795E+003	4.000000000000000E+000
-9.1793644E-001	2.044724921332652E-002	2.526289536180557E+003	4.000000000000000E+000
-8.9394033E-001	1.764151795760388E-002	2.531088536059324E+003	4.000000000000000E+000
-8.6993575E-001	1.612772986431940E-002	2.535887635938088E+003	4.000000000000000E+000
-8.4598678E-001	1.579067699176676E-002	2.540686735816853E+003	4.000000000000000E+000
-8.2196790E-001	1.601553554374768E-002	2.545485735695627E+003	4.000000000000000E+000
-7.9797292E-001	1.626316326155064E-002	2.550284935574382E+003	4.000000000000000E+000
-7.7393758E-001	1.750848202780320E-002	2.555083935453149E+003	4.000000000000000E+000
-7.4997950E-001	1.801852689073391E-002	2.559883035331914E+003	4.000000000000000E+000
-7.2596371E-001	1.886944485883184E-002	2.564682135210678E+003	4.000000000000000E+000
-7.0196563E-001	1.988569875608179E-002	2.569481235089443E+003	4.000000000000000E+000
-6.7800277E-001	2.101318898258100E-002	2.574280334968207E+003	4.000000000000000E+000
-6.5402186E-001	2.276552578723667E-002	2.579079334846974E+003	4.000000000000000E+000
-6.3006181E-001	2.360474926090078E-002	2.583878434725739E+003	4.000000000000000E+000
-6.0602576E-001	2.373754269141987E-002	2.588677534604503E+003	4.000000000000000E+000
-5.8201301E-001	2.370979003935569E-002	2.593476534483270E+003	4.000000000000000E+000
-5.5802691E-001	2.437513996107826E-002	2.598275734362047E+003	4.000000000000000E+000
-5.3401434E-001	2.514779855734239E-002	2.603074734240799E+003	4.000000000000000E+000
-5.1005286E-001	2.523191927002549E-002	2.607873834119564E+003	4.000000000000000E+000
-4.8600709E-001	2.489771081695363E-002	2.612672933998343E+003	4.000000000000000E+000
-4.6202955E-001	2.333837860425436E-002	2.617471933877096E+003	4.000000000000000E+000
-4.3804851E-001	2.198850056365065E-002	2.622271133755858E+003	4.000000000000000E+000
-4.1404313E-001	2.137342603220405E-002	2.627070133634639E+003	4.000000000000000E+000
-3.9002451E-001	2.101251874736762E-002	2.631869333513387E+003	4.000000000000000E+000
-3.6603552E-001	2.084051458431145E-002	2.636668333392154E+003	4.000000000000000E+000
-3.4203237E-001	2.030308574161974E-002	2.641467333270935E+003	4.000000000000000E+000
-3.1807584E-001	1.935216011305269E-002	2.646266533149683E+003	4.000000000000000E+000
-2.9407191E-001	1.837552942192000E-002	2.651065533028450E+003	4.000000000000000E+000
-2.7009347E-001	1.720138447984311E-002	2.655864732907212E+003	4.000000000000000E+000
-2.4608870E-001	1.667504350967863E-002	2.660663732785979E+003	4.000000000000000E+000
-2.2212827E-001	1.627445241537732E-002	2.665462732664746E+003	4.000000000000000E+000
-1.9810462E-001	1.601888547976688E-002	2.670261932543508E+003	4.000000000000000E+000
-1.7410496E-001	1.546621178868154E-002	2.675060932422282E+003	4.000000000000000E+000
-1.5009171E-001	1.480272449691894E-002	2.679860032301040E+003	4.000000000000000E+000
-1.2607463E-001	1.372461008895798E-002	2.684659132179804E+003	4.000000000000000E+000
-1.0390862E-001	1.237023437011336E-002	2.689098332067661E+003	5.000000000000000E+000
-7.9899400E-002	1.075733358635991E-002	2.693897331946442E+003	5.000000000000000E+000
-5.5947509E-002	9.186172947617699E-003	2.698696431825192E+003	5.000000000000000E+000
-3.1900898E-002	7.882427296821898E-003	2.703495531703957E+003	5.000000000000000E+000
-7.8976154E-003	6.927115325298577E-003	2.708294531582738E+003	5.000000000000000E+000
1.6012257E-002	6.289576900153582E-003	2.713093731461486E+003	5.000000000000000E+000
4.0099170E-002	5.895024918548028E-003	2.717892731340253E+003	5.000000000000000E+000
6.4123459E-002	5.601800441589783E-003	2.722691831219017E+003	5.000000000000000E+000
8.8069193E-002	5.396316396117380E-003	2.727490931097782E+003	5.000000000000000E+000
1.1205272E-001	5.269626032645788E-003	2.732289930976549E+003	5.000000000000000E+000
1.3610397E-001	5.183702713243428E-003	2.737089130855311E+003	5.000000000000000E+000
1.6011553E-001	5.132397707286948E-003	2.741888130734078E+003	5.000000000000000E+000
1.8408091E-001	5.118131942588214E-003	2.746687230612843E+003	5.000000000000000E+000
2.0812546E-001	5.119384217269759E-003	2.751486330491607E+003	5.000000000000000E+000
2.3206739E-001	5.158721315574169E-003	2.756285330370374E+003	5.000000000000000E+000
2.5600359E-001	5.254314280221438E-003	2.761084530249151E+003	5.000000000000000E+000
2.8011277E-001	5.391498469489463E-003	2.765883530127903E+003	5.000000000000000E+000
3.0399284E-001	5.565477937145978E-003	2.770682630006668E+003	5.000000000000000E+000
3.2808533E-001	5.856412811740111E-003	2.775481729885447E+003	5.000000000000000E+000
3.2975724E-001	4.945754908540996E-003	2.780041329770262E+003	5.000000000000000E+000
3.0558801E-001	3.860842173891627E-003	2.784860529648504E+003	5.000000000000000E+000
2.8164840E-001	3.124253507626337E-003	2.789659529527271E+003	5.000000000000000E+000
2.5765240E-001	2.529605362095219E-003	2.794458629406035E+003	5.000000000000000E+000
2.3362850E-001	2.026636440851621E-003	2.799257729284800E+003	5.000000000000000E+000
2.0963284E-001	1.581749780243604E-003	2.804056729163567E+003	5.000000000000000E+000
1.8565424E-001	1.204099963617650E-003	2.808855929042329E+003	5.000000000000000E+000
1.6166049E-001	8.484816204896006E-004	2.813654928921103E+003	5.000000000000000E+000
1.3763779E-001	5.332751890046636E-004	2.818454028799861E+003	5.000000000000000E+000
1.1362360E-001	2.487110087033453E-004	2.823253128678625E+003	5.000000000000000E+000
8.9667872E-002	-2.095024631225824E-005	2.828052128557400E+003	5.000000000000000E+000
6.5656111E-002	-2.684956676972654E-004	2.832851328436154E+003	5.000000000000000E+000
4.1699331E-002	-5.020885269901949E-004	2.837650328314921E+003	5.000000000000000E+000
1.7690228E-002	-7.421609635341383E-004	2.842449428193686E+003	5.000000000000000E+000
-6.3479752E-003	-1.046143239174290E-003	2.847248528072450E+003	5.000000000000000E+000
-3.0307740E-002	-1.445543068092407E-003	2.852047527951217E+003	5.000000000000000E+000
-5.4278970E-002	-2.086820466634089E-003	2.856846727829980E+003	5.000000000000000E+000
-7.8277580E-002	-3.223279273811129E-003	2.861645727708747E+003	5.000000000000000E+000
-1.0225835E-001	-5.057923653326898E-003	2.866444827587511E+003	5.000000000000000E+000
-1.2623978E-001	-7.478861372969089E-003	2.871243927466276E+003	5.000000000000000E+000
-1.5023692E-001	-9.515023576871784E-003	2.876042927345043E+003	5.000000000000000E+000
-1.7432883E-001	-1.047236379542859E-002	2.880852127223567E+003	5.000000000000000E+000
-1.9841860E-001	-1.071336043040619E-002	2.885661127102067E+003	5.000000000000000E+000
-2.2237647E-001	-1.119043553761528E-002	2.890460226980831E+003	5.000000000000000E+000
-2.4640372E-001	-1.195257528666024E-002	2.895259326859610E+003	5.000000000000000E+000
-2.7037963E-001	-1.268169144841647E-002	2.900058326738363E+003	5.000000000000000E+000
-2.9436105E-001	-1.347344187196546E-002	2.904857526617125E+003	5.000000000000000E+000
-3.1838003E-001	-1.442765651807683E-002	2.909656526495892E+003	5.000000000000000E+000
-3.4237194E-001	-1.543473024980671E-002	2.914455626374656E+003	5.000000000000000E+000
-3.6639678E-001	-1.633227255647845E-002	2.919254726253421E+003	5.000000000000000E+000
-3.9035314E-001	-1.738356202040944E-002	2.924053726132188E+003	5.000000000000000E+000
-4.1439697E-001	-1.897492218493901E-002	2.928852926010957E+003	5.000000000000000E+000
-4.3834570E-001	-2.060071361299219E-002	2.933651925889717E+003	5.000000000000000E+000
-4.6232963E-001	-2.214974521563083E-002	2.938451025768489E+003	5.000000000000000E+000
-4.8633590E-001	-2.424325254220994E-002	2.943250125647253E+003	5.000000000000000E+000
-5.1033944E-001	-2.583492366526313E-002	2.948049125526013E+003	5.000000000000000E+000
-5.3432935E-001	-2.671320064683902E-002	2.952848325404775E+003	5.000000000000000E+000
-5.5832714E-001	-2.737096770214603E-002	2.957647325283557E+003	5.000000000000000E+000
-5.8235091E-001	-2.751716358015771E-002	2.962446425162307E+003	5.000000000000000E+000
-6.0632432E-001	-2.698743975137363E-002	2.967245525041071E+003	5.000000000000000E+000
-6.3032568E-001	-2.674967921001076E-002	2.972044524919853E+003	5.000000000000000E+000
-6.5429801E-001	-2.629701677728824E-002	2.976843724798600E+003	5.000000000000000E+000
-6.7830080E-001	-2.586936861273453E-002	2.981642724677367E+003	5.000000000000000E+000
-7.0228577E-001	-2.509716540508573E-002	2.986441824556132E+003	5.000000000000000E+000
-7.2628981E-001	-2.478271587780845E-002	2.991240924434896E+003	5.000000000000000E+000
-7.5029707E-001	-2.457756295685654E-002	2.996039924313664E+003	5.000000000000000E+000
-7.7426231E-001	-2.452832773114522E-002	3.000839124192426E+003	5.000000000000000E+000
-7.9823631E-001	-2.529682177068793E-002	3.005638124071193E+003	5.000000000000000E+000
-8.2229358E-001	-2.711952123385679E-002	3.010437223949957E+003	5.000000000000000E+000
-8.4628552E-001	-2.903948538665299E-002	3.015236323828722E+003	5.000000000000000E+000
-8.7027675E-001	-3.099555983561852E-002	3.020035323707489E+003	5.000000000000000E+000
-8.9427769E-001	-3.304141343153094E-002	3.024834523586265E+003	5.000000000000000E+000
-9.1829282E-001	-3.601826247711637E-002	3.029633523465018E+003	5.000000000000000E+000
-9.4223207E-001	-3.977212363754445E-002	3.034432623343782E+003	5.000000000000000E+000
-9.6621984E-001	-4.558957118779627E-002	3.039231723222547E+003	5.000000000000000E+000
-9.9021363E-001	-5.317209688460880E-002	3.044030723101314E+003	5.000000000000000E+000
-1.0141972E+000	-6.065605416241393E-002	3.048829922980076E+003	5.000000000000000E+000
-1.0381787E+000	-6.489142674061543E-002	3.053628922858843E+003	5.000000000000000E+000
-1.0621356E+000	-6.094584040417228E-002	3.058428022737608E+003	5.000000000000000E+000
-1.0861542E+000	-5.203891376005987E-002	3.063227122616372E+003	5.000000000000000E+000
-1.1102024E+000	-4.244044493269311E-002	3.068026122495139E+003	5.000000000000000E+000
-1.1341923E+000	-3.484982006126847E-002	3.072825322373908E+003	5.000000000000000E+000
-1.1581521E+000	-2.953660236555417E-002	3.077624322252668E+003	5.000000000000000E+000
-1.1821661E+000	-2.578546034571155E-002	3.082423422131440E+003	5.000000000000000E+000
-1.2061474E+000	-2.285192336962616E-002	3.087222522010212E+003	5.000000000000000E+000
-1.2301723E+000	-2.053341993313944E-002	3.092021521888964E+003	5.000000000000000E+000
-1.2541436E+000	-1.898123827573228E-002	3.096820721767726E+003	5.000000000000000E+000
-1.2781056E+000	-1.795261043051039E-002	3.101619721646508E+003	5.000000000000000E+000
-1.3021036E+000	-1.728782196013035E-002	3.106418721525260E+003	5.000000000000000E+000
-1.3261445E+000	-1.676649769082826E-002	3.111217921404022E+003	5.000000000000000E+000
-1.3301357E+000	-1.466154739922731E-002	3.115837521287322E+003	5.000000000000000E+000
-1.3061756E+000	-1.277527469989068E-002	3.120636521166103E+003	5.000000000000000E+000
-1.2821596E+000	-1.162136239288725E-002	3.125435721044851E+003	5.000000000000000E+000
-1.2581835E+000	-1.072602142898481E-002	3.130234720923618E+003	5.000000000000000E+000
-1.2341855E+000	-9.943347305091707E-003	3.135033820802382E+003	5.000000000000000E+000
-1.2101598E+000	-9.103638407338188E-003	3.139832920681147E+003	5.000000000000000E+000
-1.1861818E+000	-8.039300963271989E-003	3.144631920559914E+003	5.000000000000000E+000
-1.1621773E+000	-6.466888967078421E-003	3.149431120438676E+003	5.000000000000000E+000
-1.1379956E+000	-3.883924471257183E-003	3.154270120316447E+003	5.000000000000000E+000
-1.1139877E+000	6.870317427430037E-004	3.159069220195197E+003	5.000000000000000E+000
-1.0900584E+000	9.184139786573769E-003	3.163868320073962E+003	5.000000000000000E+000
-1.0658987E+000	2.507660014432378E-002	3.168687319952238E+003	5.000000000000000E+000
-1.0419244E+000	4.913700514477215E-002	3.173486519830985E+003	5.000000000000000E+000
-1.0179335E+000	5.972280946629893E-002	3.178285519709752E+003	5.000000000000000E+000
-9.9391598E-001	4.208910827566072E-002	3.183084619588517E+003	5.000000000000000E+000
-9.6990699E-001	3.242713995853369E-002	3.187883719467281E+003	5.000000000000000E+000
-9.4593042E-001	2.549043608248086E-002	3.192682719346049E+003	5.000000000000000E+000
-9.2191952E-001	2.084461183410213E-002	3.197481919224811E+003	5.000000000000000E+000
-8.9794230E-001	1.763806635523929E-002	3.202280919103578E+003	5.000000000000000E+000
-8.7393588E-001	1.634698759224568E-002	3.207080018982342E+003	5.000000000000000E+000
-8.4996182E-001	1.581019559036206E-002	3.211879118861107E+003	5.000000000000000E+000
-8.2597411E-001	1.602558796600247E-002	3.216678118739881E+003	5.000000000000000E+000
-8.0196428E-001	1.639265217263965E-002	3.221477318618636E+003	5.000000000000000E+000
-7.7793431E-001	1.731444846246338E-002	3.226276318497403E+003	5.000000000000000E+000
-7.5392568E-001	1.820483419627063E-002	3.231075418376167E+003	5.000000000000000E+000
-7.2993314E-001	1.916884804828738E-002	3.235874518254932E+003	5.000000000000000E+000
-7.0598155E-001	1.956268228511830E-002	3.240673518133699E+003	5.000000000000000E+000
-6.8199939E-001	2.086791738774313E-002	3.245472718012461E+003	5.000000000000000E+000
-6.5798312E-001	2.233703179515123E-002	3.250271717891228E+003	5.000000000000000E+000
-6.3403422E-001	2.338942594978588E-002	3.255070817769993E+003	5.000000000000000E+000
-6.1002374E-001	2.372511557835022E-002	3.259869917648757E+003	5.000000000000000E+000
-5.8603084E-001	2.380272262553368E-002	3.264668917527524E+003	5.000000000000000E+000
-5.6202781E-001	2.434465018417287E-002	3.269468117406301E+003	5.000000000000000E+000
-5.3806865E-001	2.484108975907906E-002	3.274267117285053E+003	5.000000000000000E+000
-5.1403737E-001	2.509674361039549E-002	3.279066217163818E+003	5.000000000000000E+000
-4.9005991E-001	2.447498886085220E-002	3.283865317042597E+003	5.000000000000000E+000
-4.6602288E-001	2.320877168076274E-002	3.288664316921349E+003	5.000000000000000E+000
-4.4205847E-001	2.189519551575769E-002	3.293463516800111E+003	5.000000000000000E+000
-4.1803652E-001	2.131073714852703E-002	3.298262516678893E+003	5.000000000000000E+000
-3.9403167E-001	2.112989709700162E-002	3.303061616557650E+003	5.000000000000000E+000
-3.7005836E-001	2.085197954243279E-002	3.307860716436408E+003	5.000000000000000E+000
-3.4603643E-001	2.085995103526643E-002	3.312659716315189E+003	5.000000000000000E+000
-3.2207263E-001	1.973179684051202E-002	3.317458916193937E+003	5.000000000000000E+000
-2.9808974E-001	1.867320361207164E-002	3.322257916072704E+003	5.000000000000000E+000
-2.7412468E-001	1.752269597346348E-002	3.327057015951468E+003	5.000000000000000E+000
-2.5008103E-001	1.668582713195024E-002	3.331856115830233E+003	5.000000000000000E+000
-2.2610027E-001	1.622064256762915E-002	3.336655115709000E+003	5.000000000000000E+000
-2.0210990E-001	1.574368412419525E-002	3.341454315587762E+003	5.000000000000000E+000
-1.7812045E-001	1.528740451075117E-002	3.346253315466536E+003	5.000000000000000E+000
-1.5408209E-001	1.463206639152570E-002	3.351052415345293E+003	5.000000000000000E+000
-1.3013509E-001	1.349856143251336E-002	3.355851515224058E+003	5.000000000000000E+000
