Ewe/V	<I>/mA	time/s	cycle number	
-9.8841302E-002	3.140597492386488E-003	2.149599945696536E+000	1.000000000000000E+000
-8.6844765E-002	3.710347417521052E-003	4.549199885077542E+000	1.000000000000000E+000
-7.4846298E-002	3.760177929878563E-003	6.948799824458547E+000	1.000000000000000E+000
-6.2841214E-002	3.635822553936324E-003	9.348299763842078E+000	1.000000000000000E+000
-5.0877400E-002	3.442991143087229E-003	1.174779970322561E+001	1.000000000000000E+000
-3.8836278E-002	3.243921285772604E-003	1.414739964260662E+001	1.000000000000000E+000
-2.6851650E-002	3.049940177657168E-003	1.654689958199015E+001	1.000000000000000E+000
-1.4911751E-002	2.887779970643711E-003	1.894639952137368E+001	1.000000000000000E+000
-2.8733858E-003	2.759211557847197E-003	2.134599946075468E+001	1.000000000000000E+000
9.0894047E-003	2.655657972907385E-003	2.374559940013569E+001	1.000000000000000E+000
2.1118639E-002	2.586977715874454E-003	2.614499933952175E+001	1.000000000000000E+000
3.3148076E-002	2.540900073340999E-003	2.854459927890275E+001	1.000000000000000E+000
4.5116179E-002	2.500847758698369E-003	3.094419921828376E+001	1.000000000000000E+000
5.7122480E-002	2.481611442707627E-003	3.334369915766729E+001	1.000000000000000E+000
6.9141105E-002	2.481912102303710E-003	3.574319909705082E+001	1.000000000000000E+000
8.1129573E-002	2.476360222839227E-003	3.814279903643182E+001	1.000000000000000E+000
9.3096413E-002	2.490392358053373E-003	4.054229897581536E+001	1.000000000000000E+000
1.0509783E-001	2.514387230628251E-003	4.294179891519889E+001	1.000000000000000E+000
1.1714680E-001	2.538612090872036E-003	4.534139885457989E+001	1.000000000000000E+000
1.2914249E-001	2.563882218717388E-003	4.774099879396090E+001	1.000000000000000E+000
1.4116111E-001	2.595735925815737E-003	5.014039873334696E+001	1.000000000000000E+000
1.5314512E-001	2.642685022117203E-003	5.253999867272796E+001	1.000000000000000E+000
1.6512042E-001	2.687937420522424E-003	5.493959861210897E+001	1.000000000000000E+000
1.7709342E-001	2.742115376856487E-003	5.733899855149502E+001	1.000000000000000E+000
1.8911096E-001	2.802747799277749E-003	5.973859849087603E+001	1.000000000000000E+000
2.0114699E-001	2.864036928025381E-003	6.213819843025703E+001	1.000000000000000E+000
2.1314491E-001	2.934490477188911E-003	6.453769836964057E+001	1.000000000000000E+000
2.2512223E-001	3.024490989390661E-003	6.693719830902410E+001	1.000000000000000E+000
2.3709778E-001	3.122531379334284E-003	6.933679824840510E+001	1.000000000000000E+000
2.4910238E-001	3.222984688633957E-003	7.173639818778611E+001	1.000000000000000E+000
2.6107916E-001	3.340971735139781E-003	7.413579812717217E+001	1.000000000000000E+000
2.7310330E-001	3.486160497836323E-003	7.653539806655317E+001	1.000000000000000E+000
2.8506547E-001	3.651572894339313E-003	7.893499800593418E+001	1.000000000000000E+000
2.9706389E-001	3.834524530553260E-003	8.133439794532023E+001	1.000000000000000E+000
3.0905664E-001	4.045507833624274E-003	8.373399788470124E+001	1.000000000000000E+000
3.2105085E-001	4.284692549944194E-003	8.613359782408224E+001	1.000000000000000E+000
3.3303726E-001	4.551690035691211E-003	8.853309776346578E+001	1.000000000000000E+000
3.3662981E-001	4.128597808348192E-003	9.067319770940230E+001	1.000000000000000E+000
3.2462731E-001	3.316842806318311E-003	9.307279764878331E+001	1.000000000000000E+000
3.1265938E-001	2.761084507281554E-003	9.547229758816684E+001	1.000000000000000E+000
3.0066609E-001	2.314749342585937E-003	9.787179752755037E+001	1.000000000000000E+000
2.8867102E-001	1.946287051156965E-003	1.002713974669314E+002	1.000000000000000E+000
2.7668911E-001	1.618365459216044E-003	1.026709974063124E+002	1.000000000000000E+000
2.6469916E-001	1.323954860708913E-003	1.050703973456984E+002	1.000000000000000E+000
2.5270903E-001	1.084048212028406E-003	1.074699972850794E+002	1.000000000000000E+000
2.4068317E-001	8.521324742769287E-004	1.098695972244604E+002	1.000000000000000E+000
2.2871421E-001	6.534274512258196E-004	1.122690971638440E+002	1.000000000000000E+000
2.1675016E-001	4.821576437554166E-004	1.146685971032275E+002	1.000000000000000E+000
2.0476338E-001	3.131719915710979E-004	1.170681970426085E+002	1.000000000000000E+000
1.9274527E-001	1.786082701685056E-004	1.194676969819920E+002	1.000000000000000E+000
1.8072829E-001	4.718702889100436E-005	1.218671969213756E+002	1.000000000000000E+000
1.6875510E-001	-7.585704050465771E-005	1.242667968607566E+002	1.000000000000000E+000
1.5676513E-001	-1.745635447151592E-004	1.266663968001376E+002	1.000000000000000E+000
1.4472930E-001	-2.790954660132736E-004	1.290657967395236E+002	1.000000000000000E+000
1.3269818E-001	-3.545281163443107E-004	1.314653966789047E+002	1.000000000000000E+000
1.2075023E-001	-4.318016997322000E-004	1.338649966182857E+002	1.000000000000000E+000
1.0876451E-001	-5.095149415791063E-004	1.362644965576692E+002	1.000000000000000E+000
9.6725106E-002	-5.653154406644566E-004	1.386639964970527E+002	1.000000000000000E+000
8.4704153E-002	-6.236861830605229E-004	1.410635964364337E+002	1.000000000000000E+000
7.2745480E-002	-6.778159330561729E-004	1.434630963758173E+002	1.000000000000000E+000
6.0750339E-002	-7.254661903395880E-004	1.458625963152008E+002	1.000000000000000E+000
4.8746996E-002	-7.694747146862013E-004	1.482621962545818E+002	1.000000000000000E+000
3.6760651E-002	-8.155494195558888E-004	1.506617961939628E+002	1.000000000000000E+000
2.4765382E-002	-8.820658360466725E-004	1.530611961333489E+002	1.000000000000000E+000
1.2772450E-002	-9.518401136600317E-004	1.554607960727299E+002	1.000000000000000E+000
7.7081425E-004	-1.033291909447377E-003	1.578603960121109E+002	1.000000000000000E+000
-1.1241498E-002	-1.140976669690495E-003	1.602598959514944E+002	1.000000000000000E+000
-2.3229495E-002	-1.279752847584529E-003	1.626593958908779E+002	1.000000000000000E+000
-3.5225827E-002	-1.442789675645377E-003	1.650589958302589E+002	1.000000000000000E+000
-4.7235433E-002	-1.689170469191939E-003	1.674584957696425E+002	1.000000000000000E+000
-5.9216805E-002	-2.018371599176240E-003	1.698579957090260E+002	1.000000000000000E+000
-7.1230754E-002	-2.472508195142900E-003	1.722575956484070E+002	1.000000000000000E+000
-8.3193965E-002	-3.076481795698180E-003	1.746571955877880E+002	1.000000000000000E+000
-9.5219173E-002	-3.878620858619668E-003	1.770565955271741E+002	1.000000000000000E+000
-1.0719938E-001	-4.865340107250468E-003	1.794561954665551E+002	1.000000000000000E+000
-1.1918064E-001	-6.025358199139547E-003	1.818557954059361E+002	1.000000000000000E+000
-1.3116793E-001	-7.286098549857678E-003	1.842552953453196E+002	1.000000000000000E+000
-1.4315017E-001	-8.521926592015979E-003	1.866547952847031E+002	1.000000000000000E+000
-1.5511933E-001	-9.474247705498621E-003	1.890543952240841E+002	1.000000000000000E+000
-1.6710170E-001	-1.006471089298518E-002	1.914538951634677E+002	1.000000000000000E+000
-1.7924610E-001	-1.045505478172357E-002	1.938633951025986E+002	1.000000000000000E+000
-1.9129409E-001	-1.039641136762867E-002	1.962729950417270E+002	1.000000000000000E+000
-2.0330761E-001	-1.060761112161193E-002	1.986725949811080E+002	1.000000000000000E+000
-2.1530905E-001	-1.087374735816038E-002	2.010719949204940E+002	1.000000000000000E+000
-2.2728881E-001	-1.118259281235479E-002	2.034715948598750E+002	1.000000000000000E+000
-2.3926136E-001	-1.144649369198386E-002	2.058711947992560E+002	1.000000000000000E+000
-2.5128022E-001	-1.163778828513179E-002	2.082706947386396E+002	1.000000000000000E+000
-2.6328054E-001	-1.202373613079144E-002	2.106701946780231E+002	1.000000000000000E+000
-2.7528349E-001	-1.250186044885937E-002	2.130697946174041E+002	1.000000000000000E+000
-2.8727227E-001	-1.273725949162748E-002	2.154692945567876E+002	1.000000000000000E+000
-2.9930037E-001	-1.332683794818401E-002	2.178687944961712E+002	1.000000000000000E+000
-3.1126466E-001	-1.396288390943456E-002	2.202683944355522E+002	1.000000000000000E+000
-3.2326564E-001	-1.434288399801922E-002	2.226679943749332E+002	1.000000000000000E+000
-3.3524966E-001	-1.497169320068750E-002	2.250673943143192E+002	1.000000000000000E+000
-3.4725192E-001	-1.594705313701252E-002	2.274669942537003E+002	1.000000000000000E+000
-3.5925439E-001	-1.665790895445693E-002	2.298665941930813E+002	1.000000000000000E+000
-3.7125584E-001	-1.732906888357700E-002	2.322659941324673E+002	1.000000000000000E+000
-3.8326341E-001	-1.794269430974305E-002	2.346655940718483E+002	1.000000000000000E+000
-3.9525917E-001	-1.886193635646462E-002	2.370651940112293E+002	1.000000000000000E+000
-4.0724725E-001	-1.989686867433652E-002	2.394646939506129E+002	1.000000000000000E+000
-4.1925079E-001	-2.061513442410977E-002	2.418641938899964E+002	1.000000000000000E+000
-4.3122879E-001	-2.157259001246122E-002	2.442637938293774E+002	1.000000000000000E+000
-4.4325870E-001	-2.275608241615612E-002	2.466633937687584E+002	1.000000000000000E+000
-4.5527568E-001	-2.397935683065561E-002	2.490627937081445E+002	1.000000000000000E+000
-4.6725160E-001	-2.490759819263978E-002	2.514623936475255E+002	1.000000000000000E+000
-4.7924709E-001	-2.606820964369017E-002	2.538619935869065E+002	1.000000000000000E+000
-4.9127215E-001	-2.714014103984991E-002	2.562614935262900E+002	1.000000000000000E+000
-5.0330067E-001	-2.806757524125958E-002	2.586609934656735E+002	1.000000000000000E+000
-5.1526326E-001	-2.888734502952273E-002	2.610605934050545E+002	1.000000000000000E+000
-5.2724206E-001	-2.935825011685206E-002	2.634600933444381E+002	1.000000000000000E+000
-5.3924173E-001	-2.962476220810807E-002	2.658595932838216E+002	1.000000000000000E+000
-5.5124015E-001	-3.005889693487318E-002	2.682591932232026E+002	1.000000000000000E+000
-5.6321716E-001	-2.998852848192524E-002	2.706587931625836E+002	1.000000000000000E+000
-5.7522839E-001	-3.022093668341411E-002	2.730581931019697E+002	1.000000000000000E+000
-5.8722341E-001	-2.985835015982841E-002	2.754577930413507E+002	1.000000000000000E+000
-5.9923178E-001	-2.982555956858518E-002	2.778573929807317E+002	1.000000000000000E+000
-6.1119264E-001	-2.978813150651283E-002	2.802568929201152E+002	1.000000000000000E+000
-6.2324262E-001	-2.973398294161506E-002	2.826563928594987E+002	1.000000000000000E+000
-6.3524967E-001	-2.970833832222769E-002	2.850559927988797E+002	1.000000000000000E+000
-6.4720404E-001	-2.982646788595740E-002	2.874554927382633E+002	1.000000000000000E+000
-6.5919548E-001	-2.951322386253530E-002	2.898549926776468E+002	1.000000000000000E+000
-6.7119598E-001	-2.930688745972587E-002	2.922545926170278E+002	1.000000000000000E+000
-6.8324059E-001	-2.931039363051843E-002	2.946541925564088E+002	1.000000000000000E+000
-6.9520521E-001	-2.925811756625069E-002	2.970535924957949E+002	1.000000000000000E+000
-7.0719624E-001	-2.900436975599363E-002	2.994531924351759E+002	1.000000000000000E+000
-7.1916312E-001	-2.884883976508713E-002	3.018527923745569E+002	1.000000000000000E+000
-7.3118633E-001	-2.911517222133377E-002	3.042522923139404E+002	1.000000000000000E+000
-7.4321073E-001	-2.873126378487742E-002	3.066517922533239E+002	1.000000000000000E+000
-7.5518841E-001	-2.884084291364403E-002	3.090513921927050E+002	1.000000000000000E+000
-7.6722407E-001	-2.904486538222223E-002	3.114508921320885E+002	1.000000000000000E+000
-7.7920109E-001	-2.897256512834767E-002	3.138503920714720E+002	1.000000000000000E+000
-7.9118365E-001	-2.943449199163778E-002	3.162499920108530E+002	1.000000000000000E+000
-8.0318481E-001	-2.995185300078496E-002	3.186495919502340E+002	1.000000000000000E+000
-8.1519026E-001	-3.096889583378104E-002	3.210489918896201E+002	1.000000000000000E+000
-8.2716048E-001	-3.189296335802372E-002	3.234485918290011E+002	1.000000000000000E+000
-8.3916634E-001	-3.310776200164489E-002	3.258481917683821E+002	1.000000000000000E+000
-8.5117918E-001	-3.393920816165114E-002	3.282476917077656E+002	1.000000000000000E+000
-8.6321074E-001	-3.474715413354645E-002	3.306471916471492E+002	1.000000000000000E+000
-8.7519956E-001	-3.574794860315972E-002	3.330467915865302E+002	1.000000000000000E+000
-8.8717920E-001	-3.689280805657708E-002	3.354462915259137E+002	1.000000000000000E+000
-8.9915478E-001	-3.788823738816682E-002	3.378457914652972E+002	1.000000000000000E+000
-9.1115689E-001	-3.942769303307558E-002	3.402453914046782E+002	1.000000000000000E+000
-9.2317402E-001	-4.155975129917805E-002	3.426449913440592E+002	1.000000000000000E+000
-9.3511730E-001	-4.385155669356511E-002	3.450443912834453E+002	1.000000000000000E+000
-9.4713843E-001	-4.661496194256909E-002	3.474439912228263E+002	1.000000000000000E+000
-9.5912802E-001	-4.978048642954724E-002	3.498435911622073E+002	1.000000000000000E+000
-9.7111017E-001	-5.362399534199214E-002	3.522430911015908E+002	1.000000000000000E+000
-9.8307067E-001	-5.805087979680224E-002	3.546425910409744E+002	1.000000000000000E+000
-9.9509299E-001	-6.268730261753785E-002	3.570421909803554E+002	1.000000000000000E+000
-1.0070903E+000	-6.717569300575982E-002	3.594416909197389E+002	1.000000000000000E+000
-1.0190768E+000	-7.092057834875654E-002	3.618411908591224E+002	1.000000000000000E+000
-1.0310779E+000	-7.301105061058166E-002	3.642407907985034E+002	1.000000000000000E+000
-1.0430535E+000	-7.293631334441630E-002	3.666402907378870E+002	1.000000000000000E+000
-1.0550507E+000	-7.063996690840713E-002	3.690397906772705E+002	1.000000000000000E+000
-1.0670344E+000	-6.654117958273814E-002	3.714393906166515E+002	1.000000000000000E+000
-1.0790619E+000	-6.121974567040067E-002	3.738389905560325E+002	1.000000000000000E+000
-1.0910521E+000	-5.561588569270337E-002	3.762384904954160E+002	1.000000000000000E+000
-1.1030189E+000	-5.027768604062444E-002	3.786379904347996E+002	1.000000000000000E+000
-1.1150800E+000	-4.555331651504690E-002	3.810375903741806E+002	1.000000000000000E+000
-1.1270450E+000	-4.149470432369434E-002	3.834370903135641E+002	1.000000000000000E+000
-1.1390555E+000	-3.815198196319947E-002	3.858365902529476E+002	1.000000000000000E+000
-1.1510770E+000	-3.540700013710235E-002	3.882361901923287E+002	1.000000000000000E+000
-1.1630331E+000	-3.312208168574407E-002	3.906356901317122E+002	1.000000000000000E+000
-1.1750969E+000	-3.119764225018923E-002	3.930351900710957E+002	1.000000000000000E+000
-1.1870258E+000	-2.950996819322887E-002	3.954347900104767E+002	1.000000000000000E+000
-1.1990359E+000	-2.797222370413799E-002	3.978343899498577E+002	1.000000000000000E+000
-1.2110413E+000	-2.657111472996121E-002	4.002337898892438E+002	1.000000000000000E+000
-1.2230525E+000	-2.543091504383732E-002	4.026333898286248E+002	1.000000000000000E+000
-1.2350800E+000	-2.455153226426882E-002	4.050329897680058E+002	1.000000000000000E+000
-1.2471156E+000	-2.388722940599819E-002	4.074324897073893E+002	1.000000000000000E+000
-1.2590857E+000	-2.334387646182892E-002	4.098319896467729E+002	1.000000000000000E+000
-1.2710856E+000	-2.292191882629913E-002	4.122315895861539E+002	1.000000000000000E+000
-1.2830493E+000	-2.260079897044009E-002	4.146310895255374E+002	1.000000000000000E+000
-1.2950708E+000	-2.236190163480245E-002	4.170305894649209E+002	1.000000000000000E+000
-1.3070848E+000	-2.215472412825709E-002	4.194301894043019E+002	1.000000000000000E+000
-1.3190465E+000	-2.197240600365047E-002	4.218297893436829E+002	1.000000000000000E+000
-1.3310373E+000	-2.184742318200745E-002	4.242291892830690E+002	1.000000000000000E+000
-1.3381599E+000	-2.110714089022964E-002	4.262693892315292E+002	1.000000000000000E+000
-1.3261346E+000	-1.923179036811995E-002	4.286689891709102E+002	1.000000000000000E+000
-1.3141925E+000	-1.814898676610163E-002	4.310684891102937E+002	1.000000000000000E+000
-1.3021587E+000	-1.729305976945819E-002	4.334679890496773E+002	1.000000000000000E+000
-1.2901176E+000	-1.658100449314340E-002	4.358675889890583E+002	1.000000000000000E+000
-1.2780825E+000	-1.597792700964690E-002	4.382670889284418E+002	1.000000000000000E+000
-1.2661359E+000	-1.543952204889457E-002	4.406665888678253E+002	1.000000000000000E+000
-1.2542040E+000	-1.492196370759355E-002	4.430661888072063E+002	1.000000000000000E+000
-1.2421993E+000	-1.442933021709850E-002	4.454657887465874E+002	1.000000000000000E+000
-1.2301577E+000	-1.395896776453134E-002	4.478651886859734E+002	1.000000000000000E+000
-1.2181759E+000	-1.349202679882511E-002	4.502647886253544E+002	1.000000000000000E+000
-1.2062095E+000	-1.299365060607208E-002	4.526643885647354E+002	1.000000000000000E+000
-1.1942110E+000	-1.246900875045552E-002	4.550638885041190E+002	1.000000000000000E+000
-1.1821575E+000	-1.190832031052874E-002	4.574633884435025E+002	1.000000000000000E+000
-1.1702027E+000	-1.123829343030974E-002	4.598629883828835E+002	1.000000000000000E+000
-1.1582274E+000	-1.041874321241520E-002	4.622624883222670E+002	1.000000000000000E+000
-1.1461929E+000	-9.407143409616264E-003	4.646619882616505E+002	1.000000000000000E+000
-1.1342170E+000	-8.095809229284750E-003	4.670615882010316E+002	1.000000000000000E+000
-1.1222205E+000	-6.350090437759567E-003	4.694611881404126E+002	1.000000000000000E+000
-1.1100791E+000	-4.010219631142183E-003	4.718805880792934E+002	1.000000000000000E+000
-1.0980966E+000	-8.446397393100233E-004	4.742801880186744E+002	1.000000000000000E+000
-1.0861363E+000	3.583687363412071E-003	4.766797879580554E+002	1.000000000000000E+000
-1.0741961E+000	9.703144196259700E-003	4.790791878974414E+002	1.000000000000000E+000
-1.0620027E+000	1.827604271106675E-002	4.814987878363172E+002	1.000000000000000E+000
-1.0500778E+000	2.926870814156075E-002	4.838983877756982E+002	1.000000000000000E+000
-1.0380775E+000	4.310897385178611E-002	4.862978877150817E+002	1.000000000000000E+000
-1.0260663E+000	5.814629910796731E-002	4.886973876544653E+002	1.000000000000000E+000
-1.0140719E+000	6.762410771384714E-002	4.910969875938463E+002	1.000000000000000E+000
-1.0020974E+000	6.059115395658515E-002	4.934964875332298E+002	1.000000000000000E+000
-9.9005377E-001	4.491071586044137E-002	4.958959874726133E+002	1.000000000000000E+000
-9.7804248E-001	3.667019275698158E-002	4.982955874119943E+002	1.000000000000000E+000
-9.6603256E-001	3.148136010959479E-002	5.006951873513754E+002	1.000000000000000E+000
-9.5403904E-001	2.742573875108167E-002	5.030945872907614E+002	1.000000000000000E+000
-9.4207186E-001	2.428636382980165E-002	5.054941872301424E+002	1.000000000000000E+000
-9.3005532E-001	2.158354190318132E-002	5.078937871695234E+002	1.000000000000000E+000
-9.1804016E-001	1.960844760152664E-002	5.102932871089070E+002	1.000000000000000E+000
-9.0606946E-001	1.785498318463556E-002	5.126927870482905E+002	1.000000000000000E+000
-8.9407694E-001	1.700010515201437E-002	5.150923869876715E+002	1.000000000000000E+000
-8.8203031E-001	1.625936263247713E-002	5.174918869270550E+002	1.000000000000000E+000
-8.7008572E-001	1.571296718575549E-002	5.198913868664386E+002	1.000000000000000E+000
-8.5804766E-001	1.595747640515860E-002	5.222909868058196E+002	1.000000000000000E+000
-8.4605277E-001	1.587930906066656E-002	5.246905867452006E+002	1.000000000000000E+000
-8.3408439E-001	1.597845156771038E-002	5.270899866845866E+002	1.000000000000000E+000
-8.2208192E-001	1.614899620745874E-002	5.294895866239676E+002	1.000000000000000E+000
-8.1005228E-001	1.659874784559029E-002	5.318891865633486E+002	1.000000000000000E+000
-7.9803717E-001	1.709990559275881E-002	5.342886865027322E+002	1.000000000000000E+000
-7.8606421E-001	1.754196734081054E-002	5.366881864421157E+002	1.000000000000000E+000
-7.7405536E-001	1.793891325558150E-002	5.390877863814967E+002	1.000000000000000E+000
-7.6209342E-001	1.827286000446844E-002	5.414872863208802E+002	1.000000000000000E+000
-7.5008881E-001	1.849802714891835E-002	5.438867862602638E+002	1.000000000000000E+000
-7.3809612E-001	1.917376566893168E-002	5.462863861996448E+002	1.000000000000000E+000
-7.2610790E-001	1.947234767922588E-002	5.486859861390258E+002	1.000000000000000E+000
-7.1411461E-001	2.002193614795109E-002	5.510853860784118E+002	1.000000000000000E+000
-7.0207828E-001	2.042918510406649E-002	5.534849860177928E+002	1.000000000000000E+000
-6.9009954E-001	2.107367239765251E-002	5.558845859571738E+002	1.000000000000000E+000
-6.7812920E-001	2.196602402124626E-002	5.582840858965574E+002	1.000000000000000E+000
-6.6610110E-001	2.301562088317316E-002	5.606835858359409E+002	1.000000000000000E+000
-6.5411693E-001	2.414386567676574E-002	5.630831857753219E+002	1.000000000000000E+000
-6.4213550E-001	2.484261183180381E-002	5.654826857147054E+002	1.000000000000000E+000
-6.3014233E-001	2.567829113678533E-002	5.678821856540890E+002	1.000000000000000E+000
-6.1809838E-001	2.598344074570647E-002	5.702817855934700E+002	1.000000000000000E+000
-6.0613084E-001	2.570324695944715E-002	5.726813855328510E+002	1.000000000000000E+000
-5.9409851E-001	2.550487961847648E-002	5.750807854722370E+002	1.000000000000000E+000
-5.8212471E-001	2.553627814090750E-002	5.774803854116180E+002	1.000000000000000E+000
-5.7012981E-001	2.580495462755528E-002	5.798799853509991E+002	1.000000000000000E+000
-5.5815077E-001	2.619958048171211E-002	5.822794852903826E+002	1.000000000000000E+000
-5.4613674E-001	2.668219181321463E-002	5.846789852297661E+002	1.000000000000000E+000
-5.3414720E-001	2.701426003299356E-002	5.870785851691471E+002	1.000000000000000E+000
-5.2215558E-001	2.722757183414537E-002	5.894780851085306E+002	1.000000000000000E+000
-5.1014692E-001	2.722876265490859E-002	5.918775850479142E+002	1.000000000000000E+000
-4.9816981E-001	2.695865965239241E-002	5.942771849872952E+002	1.000000000000000E+000
-4.8615888E-001	2.666408586386555E-002	5.966767849266762E+002	1.000000000000000E+000
-4.7416532E-001	2.611749109895506E-002	5.990761848660622E+002	1.000000000000000E+000
-4.6217537E-001	2.531656343054300E-002	6.014757848054433E+002	1.000000000000000E+000
-4.5013273E-001	2.484559429077696E-002	6.038753847448243E+002	1.000000000000000E+000
-4.3812427E-001	2.444163036385599E-002	6.062748846842078E+002	1.000000000000000E+000
-4.2616427E-001	2.406511382651749E-002	6.086743846235913E+002	1.000000000000000E+000
-4.1415629E-001	2.381828970124290E-002	6.110739845629723E+002	1.000000000000000E+000
-4.0211412E-001	2.344164062430433E-002	6.134734845023559E+002	1.000000000000000E+000
-3.9015698E-001	2.309271626363452E-002	6.158729844417394E+002	1.000000000000000E+000
-3.7813818E-001	2.282193961448731E-002	6.182725843811204E+002	1.000000000000000E+000
-3.6617687E-001	2.215813040335246E-002	6.206721843205014E+002	1.000000000000000E+000
-3.5420385E-001	2.168305814973678E-002	6.230715842598875E+002	1.000000000000000E+000
-3.4216169E-001	2.075958052595182E-002	6.254711841992685E+002	1.000000000000000E+000
-3.3016598E-001	1.974189081868105E-002	6.278707841386495E+002	1.000000000000000E+000
-3.1819439E-001	1.890196782028131E-002	6.302702840780330E+002	1.000000000000000E+000
-3.0622298E-001	1.844285014576472E-002	6.326697840174165E+002	1.000000000000000E+000
-2.9418910E-001	1.796240350147058E-002	6.350693839567975E+002	1.000000000000000E+000
-2.8218663E-001	1.759897872735561E-002	6.374688838961811E+002	1.000000000000000E+000
-2.7022827E-001	1.746756541598143E-002	6.398683838355646E+002	1.000000000000000E+000
-2.5820264E-001	1.733417686469890E-002	6.422679837749456E+002	1.000000000000000E+000
-2.4621013E-001	1.707467761644643E-002	6.446675837143266E+002	1.000000000000000E+000
-2.3421887E-001	1.722018000822356E-002	6.470669836537127E+002	1.000000000000000E+000
-2.2218244E-001	1.705569426408737E-002	6.494665835930937E+002	1.000000000000000E+000
-2.1022156E-001	1.695846782824610E-002	6.518661835324747E+002	1.000000000000000E+000
-1.9819297E-001	1.675751826142562E-002	6.542656834718582E+002	1.000000000000000E+000
-1.8621656E-001	1.660933738464568E-002	6.566651834112417E+002	1.000000000000000E+000
-1.7422786E-001	1.645194795872290E-002	6.590647833506227E+002	1.000000000000000E+000
-1.6219075E-001	1.629280081973178E-002	6.614642832900063E+002	1.000000000000000E+000
-1.5020612E-001	1.614099348152935E-002	6.638637832293898E+002	1.000000000000000E+000
-1.3816756E-001	1.583488225103236E-002	6.662633831687708E+002	1.000000000000000E+000
-1.2621814E-001	1.537462852155058E-002	6.686629831081518E+002	1.000000000000000E+000
-1.1418124E-001	1.490123725476170E-002	6.710623830475379E+002	1.000000000000000E+000
-1.0391605E-001	1.427967588022845E-002	6.731219829955080E+002	2.000000000000000E+000
-9.1920562E-002	1.360671544081135E-002	6.755215829348890E+002	2.000000000000000E+000
-7.9920620E-002	1.284350692943920E-002	6.779211828742700E+002	2.000000000000000E+000
-6.7926988E-002	1.202976233946233E-002	6.803206828136535E+002	2.000000000000000E+000
-5.5912882E-002	1.122772845660297E-002	6.827201827530371E+002	2.000000000000000E+000
-4.3952852E-002	1.048194997494648E-002	6.851197826924181E+002	2.000000000000000E+000
-3.1896468E-002	9.832489032407687E-003	6.875192826318016E+002	2.000000000000000E+000
-1.9932797E-002	9.264400456607036E-003	6.899187825711851E+002	2.000000000000000E+000
-7.9903807E-003	8.813944400582224E-003	6.923183825105662E+002	2.000000000000000E+000
4.1072085E-003	8.439172191815669E-003	6.947179824499472E+002	2.000000000000000E+000
1.6075091E-002	8.151470584654444E-003	6.971173823893332E+002	2.000000000000000E+000
2.8013891E-002	7.937693112063091E-003	6.995169823287142E+002	2.000000000000000E+000
4.0113393E-002	7.792255997801922E-003	7.019165822680952E+002	2.000000000000000E+000
5.2063081E-002	7.648202342709992E-003	7.043160822074788E+002	2.000000000000000E+000
6.4037479E-002	7.566189493779657E-003	7.067155821468623E+002	2.000000000000000E+000
7.6080941E-002	7.459172128056690E-003	7.091151820862433E+002	2.000000000000000E+000
8.7973893E-002	7.394058351078259E-003	7.115146820256268E+002	2.000000000000000E+000
1.0006849E-001	7.318755300940477E-003	7.139141819650104E+002	2.000000000000000E+000
1.1200814E-001	7.239398283262533E-003	7.163137819043914E+002	2.000000000000000E+000
1.2408493E-001	7.195290008849164E-003	7.187133818437724E+002	2.000000000000000E+000
1.3599020E-001	7.091744744684526E-003	7.211127817831584E+002	2.000000000000000E+000
1.4806274E-001	7.039956517568793E-003	7.235123817225394E+002	2.000000000000000E+000
1.6005778E-001	6.966681259762415E-003	7.259119816619204E+002	2.000000000000000E+000
1.7200381E-001	6.911459516218285E-003	7.283114816013040E+002	2.000000000000000E+000
1.8405575E-001	6.851374319107276E-003	7.307109815406875E+002	2.000000000000000E+000
1.9598053E-001	6.794655469788441E-003	7.331105814800685E+002	2.000000000000000E+000
2.0806611E-001	6.770399356001860E-003	7.355100814194520E+002	2.000000000000000E+000
2.2005577E-001	6.704508295732006E-003	7.379095813588356E+002	2.000000000000000E+000
2.3199670E-001	6.674446635974641E-003	7.403091812982166E+002	2.000000000000000E+000
2.4404226E-001	6.669940235691951E-003	7.427087812375976E+002	2.000000000000000E+000
2.5605601E-001	6.655713349930273E-003	7.451081811769836E+002	2.000000000000000E+000
2.6805234E-001	6.649609437226089E-003	7.475077811163646E+002	2.000000000000000E+000
2.8000090E-001	6.673733741277273E-003	7.499073810557456E+002	2.000000000000000E+000
2.9203036E-001	6.730894111028706E-003	7.523068809951292E+002	2.000000000000000E+000
3.0402395E-001	6.771984122138655E-003	7.547063809345127E+002	2.000000000000000E+000
3.1601283E-001	6.836049053200260E-003	7.571059808738937E+002	2.000000000000000E+000
3.2798102E-001	6.945291474761806E-003	7.595054808132772E+002	2.000000000000000E+000
3.3984089E-001	7.111151886531331E-003	7.618749807534186E+002	2.000000000000000E+000
3.2970613E-001	5.871864327654824E-003	7.640651806980895E+002	2.000000000000000E+000
3.1775081E-001	5.133335900821785E-003	7.664646806374731E+002	2.000000000000000E+000
3.0570689E-001	4.524426942291535E-003	7.688641805768566E+002	2.000000000000000E+000
2.9359207E-001	4.018848136678757E-003	7.712837805157324E+002	2.000000000000000E+000
2.8160504E-001	3.574314017569056E-003	7.736832804551159E+002	2.000000000000000E+000
2.6959306E-001	3.179718975639398E-003	7.760827803944994E+002	2.000000000000000E+000
2.5760588E-001	2.824995000109534E-003	7.784823803338804E+002	2.000000000000000E+000
2.4561805E-001	2.499906074764132E-003	7.808819802732614E+002	2.000000000000000E+000
2.3360832E-001	2.199290539232396E-003	7.832813802126475E+002	2.000000000000000E+000
2.2163512E-001	1.921659314903580E-003	7.856809801520285E+002	2.000000000000000E+000
2.0961568E-001	1.675871577592466E-003	7.880805800914095E+002	2.000000000000000E+000
1.9762267E-001	1.452783548751384E-003	7.904800800307930E+002	2.000000000000000E+000
1.8566802E-001	1.250640144485209E-003	7.928795799701766E+002	2.000000000000000E+000
1.7363264E-001	1.062141070003471E-003	7.952791799095576E+002	2.000000000000000E+000
1.6166393E-001	8.848787169341461E-004	7.976786798489411E+002	2.000000000000000E+000
1.4966862E-001	7.206410716832611E-004	8.000781797883246E+002	2.000000000000000E+000
1.3763705E-001	5.670182337054771E-004	8.024777797277056E+002	2.000000000000000E+000
1.2565984E-001	4.254602222285530E-004	8.048773796670866E+002	2.000000000000000E+000
1.1364376E-001	2.949163929421887E-004	8.072767796064727E+002	2.000000000000000E+000
1.0165189E-001	1.724209131234078E-004	8.096763795458537E+002	2.000000000000000E+000
8.9708850E-002	4.926715121265088E-005	8.120759794852347E+002	2.000000000000000E+000
7.7700630E-002	-6.858874079013438E-005	8.144753794246208E+002	2.000000000000000E+000
6.5682001E-002	-1.600314878532089E-004	8.168749793640018E+002	2.000000000000000E+000
5.3695656E-002	-2.706937079246240E-004	8.192745793033828E+002	2.000000000000000E+000
4.1676741E-002	-3.770851650723109E-004	8.216740792427663E+002	2.000000000000000E+000
2.9684534E-002	-4.730458835484628E-004	8.240735791821498E+002	2.000000000000000E+000
1.7718347E-002	-5.905083932482165E-004	8.264731791215308E+002	2.000000000000000E+000
5.6746784E-003	-7.169450717916005E-004	8.288727790609119E+002	2.000000000000000E+000
-6.3040336E-003	-8.518877986918806E-004	8.312721790002979E+002	2.000000000000000E+000
-1.8317778E-002	-1.022973482711124E-003	8.336717789396789E+002	2.000000000000000E+000
-3.0302644E-002	-1.245728782443145E-003	8.360713788790599E+002	2.000000000000000E+000
-4.2282205E-002	-1.541326099288937E-003	8.384707788184460E+002	2.000000000000000E+000
-5.4283850E-002	-1.929127872197430E-003	8.408703787578270E+002	2.000000000000000E+000
-6.6278279E-002	-2.449586006891012E-003	8.432699786972080E+002	2.000000000000000E+000
-7.8256339E-002	-3.120062705531862E-003	8.456694786365915E+002	2.000000000000000E+000
-9.0261802E-002	-3.996258931950672E-003	8.480689785759751E+002	2.000000000000000E+000
-1.0223438E-001	-5.060029191527508E-003	8.504685785153561E+002	2.000000000000000E+000
-1.1424620E-001	-6.303640412321926E-003	8.528681784547371E+002	2.000000000000000E+000
-1.2620774E-001	-7.606062347208259E-003	8.552675783941231E+002	2.000000000000000E+000
-1.3816288E-001	-8.802122646394184E-003	8.576671783335041E+002	2.000000000000000E+000
-1.5019912E-001	-9.700104425019243E-003	8.600667782728851E+002	2.000000000000000E+000
-1.6220181E-001	-1.021112807148900E-002	8.624662782122687E+002	2.000000000000000E+000
-1.7439325E-001	-1.027782380974498E-002	8.648857781511470E+002	2.000000000000000E+000
-1.8636240E-001	-1.045316018300377E-002	8.672853780905280E+002	2.000000000000000E+000
-1.9838136E-001	-1.070887769080081E-002	8.696848780299115E+002	2.000000000000000E+000
-2.1040665E-001	-1.099036687331978E-002	8.720843779692950E+002	2.000000000000000E+000
-2.2240807E-001	-1.128163290229343E-002	8.744839779086760E+002	2.000000000000000E+000
-2.3436216E-001	-1.168593333707013E-002	8.768835778480570E+002	2.000000000000000E+000
-2.4638696E-001	-1.205104274982527E-002	8.792829777874431E+002	2.000000000000000E+000
-2.5837097E-001	-1.227088586279179E-002	8.816825777268241E+002	2.000000000000000E+000
-2.7039745E-001	-1.270379329033203E-002	8.840821776662051E+002	2.000000000000000E+000
-2.8240803E-001	-1.310083132598580E-002	8.864815776055912E+002	2.000000000000000E+000
-2.9437169E-001	-1.346261283735711E-002	8.888811775449722E+002	2.000000000000000E+000
-3.0638158E-001	-1.411951311308016E-002	8.912807774843532E+002	2.000000000000000E+000
-3.1835186E-001	-1.438870974954154E-002	8.936802774237367E+002	2.000000000000000E+000
-3.3035719E-001	-1.501243801596364E-002	8.960797773631202E+002	2.000000000000000E+000
-3.4232408E-001	-1.554586868569499E-002	8.984793773025012E+002	2.000000000000000E+000
-3.5436937E-001	-1.620569271271846E-002	9.008788772418848E+002	2.000000000000000E+000
-3.6638001E-001	-1.681565688915081E-002	9.032783771812683E+002	2.000000000000000E+000
-3.7835744E-001	-1.729570537535770E-002	9.056779771206493E+002	2.000000000000000E+000
-3.9036337E-001	-1.816342629243090E-002	9.080775770600303E+002	2.000000000000000E+000
-4.0234694E-001	-1.872911250000692E-002	9.104769769994164E+002	2.000000000000000E+000
-4.1437811E-001	-1.950362092266783E-002	9.128765769387974E+002	2.000000000000000E+000
-4.2633748E-001	-2.041219915273916E-002	9.152761768781784E+002	2.000000000000000E+000
-4.3832192E-001	-2.139585898763480E-002	9.176756768175619E+002	2.000000000000000E+000
-4.5031533E-001	-2.233124623954708E-002	9.200751767569454E+002	2.000000000000000E+000
-4.6234471E-001	-2.328782130833693E-002	9.224747766963264E+002	2.000000000000000E+000
-4.7433195E-001	-2.455383501978595E-002	9.248743766357074E+002	2.000000000000000E+000
-4.8634145E-001	-2.532006782738810E-002	9.272737765750935E+002	2.000000000000000E+000
-4.9831450E-001	-2.634012500402788E-002	9.296733765144745E+002	2.000000000000000E+000
-5.1029825E-001	-2.712517658743785E-002	9.320729764538555E+002	2.000000000000000E+000
-5.2225745E-001	-2.774611593829718E-002	9.344724763932390E+002	2.000000000000000E+000
-5.3429645E-001	-2.856191286163587E-002	9.368719763326226E+002	2.000000000000000E+000
-5.4627556E-001	-2.883555438045327E-002	9.392715762720036E+002	2.000000000000000E+000
-5.5825841E-001	-2.889527859181862E-002	9.416710762113871E+002	2.000000000000000E+000
-5.7029539E-001	-2.931433858755406E-002	9.440705761507706E+002	2.000000000000000E+000
-5.8226717E-001	-2.889357625412825E-002	9.464701760901517E+002	2.000000000000000E+000
-5.9426051E-001	-2.889094186330088E-002	9.488697760295327E+002	2.000000000000000E+000
-6.0626084E-001	-2.866371538566090E-002	9.512691759689187E+002	2.000000000000000E+000
-6.1830217E-001	-2.866183518819609E-002	9.536687759082997E+002	2.000000000000000E+000
-6.3031000E-001	-2.853611447608681E-002	9.560683758476807E+002	2.000000000000000E+000
-6.4230227E-001	-2.850039325503495E-002	9.584677757870668E+002	2.000000000000000E+000
-6.5429628E-001	-2.852551185614638E-002	9.608673757264478E+002	2.000000000000000E+000
-6.6626012E-001	-2.835529801027126E-002	9.632669756658288E+002	2.000000000000000E+000
-6.7826194E-001	-2.795437052545374E-002	9.656664756052123E+002	2.000000000000000E+000
-6.9029140E-001	-2.813183487542900E-002	9.680659755445959E+002	2.000000000000000E+000
-7.0229179E-001	-2.771215390333737E-002	9.704655754839769E+002	2.000000000000000E+000
-7.1430433E-001	-2.764835959099554E-002	9.728650754233604E+002	2.000000000000000E+000
-7.2628939E-001	-2.758868316889596E-002	9.752645753627439E+002	2.000000000000000E+000
-7.3826402E-001	-2.719547933198788E-002	9.776641753021249E+002	2.000000000000000E+000
-7.5026011E-001	-2.729135140926575E-002	9.800637752415059E+002	2.000000000000000E+000
-7.6227689E-001	-2.721575519086916E-002	9.824631751808920E+002	2.000000000000000E+000
-7.7420676E-001	-2.744396851432901E-002	9.848627751202730E+002	2.000000000000000E+000
-7.8627712E-001	-2.780910776510982E-002	9.872623750596540E+002	2.000000000000000E+000
-7.9823232E-001	-2.806031079277954E-002	9.896618749990375E+002	2.000000000000000E+000
-8.1029129E-001	-2.920877640510433E-002	9.920613749384211E+002	2.000000000000000E+000
-8.2229376E-001	-2.993343792255983E-002	9.944609748778021E+002	2.000000000000000E+000
-8.3431178E-001	-3.118047954450209E-002	9.968605748171831E+002	2.000000000000000E+000
-8.4627247E-001	-3.193208669700875E-002	9.992599747565691E+002	2.000000000000000E+000
-8.5828185E-001	-3.314783903210505E-002	1.001659574695950E+003	2.000000000000000E+000
-8.7025470E-001	-3.387694762514945E-002	1.004059174635331E+003	2.000000000000000E+000
-8.8225526E-001	-3.488668539837769E-002	1.006458674574715E+003	2.000000000000000E+000
-8.9426124E-001	-3.602223006333705E-002	1.008858174514098E+003	2.000000000000000E+000
-9.0623993E-001	-3.720090095990680E-002	1.011257774453479E+003	2.000000000000000E+000
-9.1824991E-001	-3.884123327661149E-002	1.013657274392863E+003	2.000000000000000E+000
-9.3025607E-001	-4.094670790056504E-002	1.016056774332246E+003	2.000000000000000E+000
-9.4224685E-001	-4.319236511042529E-002	1.018456374271627E+003	2.000000000000000E+000
-9.5415366E-001	-4.604017911645331E-002	1.020855874211011E+003	2.000000000000000E+000
-9.6619010E-001	-4.952672253681734E-002	1.023255374150394E+003	2.000000000000000E+000
-9.7819370E-001	-5.356530884445532E-002	1.025654974089775E+003	2.000000000000000E+000
-9.9018025E-001	-5.754099514751421E-002	1.028054574029156E+003	2.000000000000000E+000
-1.0021744E+000	-6.207562221874746E-002	1.030454073968540E+003	2.000000000000000E+000
-1.0141807E+000	-6.615423550248556E-002	1.032853573907923E+003	2.000000000000000E+000
-1.0261719E+000	-6.895351662699700E-002	1.035253173847304E+003	2.000000000000000E+000
-1.0381758E+000	-7.029571431377379E-002	1.037652673786688E+003	2.000000000000000E+000
-1.0501633E+000	-6.885959965265565E-002	1.040052173726071E+003	2.000000000000000E+000
-1.0621186E+000	-6.553643755825900E-002	1.042451773665452E+003	2.000000000000000E+000
-1.0741311E+000	-6.099759583538411E-002	1.044851273604836E+003	2.000000000000000E+000
-1.0861171E+000	-5.566095775616287E-002	1.047250773544220E+003	2.000000000000000E+000
-1.0981435E+000	-5.038269325434025E-002	1.049650373483601E+003	2.000000000000000E+000
-1.1101893E+000	-4.538057584601507E-002	1.052049873422984E+003	2.000000000000000E+000
-1.1221484E+000	-4.112117688906486E-002	1.054449373362368E+003	2.000000000000000E+000
-1.1341751E+000	-3.749855188705667E-002	1.056848973301749E+003	2.000000000000000E+000
-1.1461444E+000	-3.451295190912098E-002	1.059248573241130E+003	2.000000000000000E+000
-1.1581334E+000	-3.201565971807097E-002	1.061647973180516E+003	2.000000000000000E+000
-1.1701581E+000	-2.996493407415313E-002	1.064047573119897E+003	2.000000000000000E+000
-1.1821254E+000	-2.820408105393024E-002	1.066447173059278E+003	2.000000000000000E+000
-1.1941274E+000	-2.661189363592803E-002	1.068846672998661E+003	2.000000000000000E+000
-1.2061589E+000	-2.513994806992045E-002	1.071246172938045E+003	2.000000000000000E+000
-1.2181897E+000	-2.390448557098910E-002	1.073645772877426E+003	2.000000000000000E+000
-1.2301574E+000	-2.287050793570644E-002	1.076045272816809E+003	2.000000000000000E+000
-1.2421410E+000	-2.203524469906389E-002	1.078444772756193E+003	2.000000000000000E+000
-1.2541286E+000	-2.137758213350369E-002	1.080844372695574E+003	2.000000000000000E+000
-1.2661129E+000	-2.085691935260303E-002	1.083243972634955E+003	2.000000000000000E+000
-1.2781200E+000	-2.043365081732607E-002	1.085643372574341E+003	2.000000000000000E+000
-1.2901254E+000	-2.012526368827389E-002	1.088042972513722E+003	2.000000000000000E+000
-1.3021355E+000	-1.983531765429128E-002	1.090442572453103E+003	2.000000000000000E+000
-1.3141285E+000	-1.960647344161243E-002	1.092841972392489E+003	2.000000000000000E+000
-1.3261197E+000	-1.940752913021268E-002	1.095241572331870E+003	2.000000000000000E+000
-1.3381261E+000	-1.925771889807930E-002	1.097641172271251E+003	2.000000000000000E+000
-1.3301351E+000	-1.725584484004283E-002	1.099861372215164E+003	2.000000000000000E+000
-1.3181131E+000	-1.605393941677336E-002	1.102260772154550E+003	2.000000000000000E+000
-1.3061134E+000	-1.520426890534582E-002	1.104660372093931E+003	2.000000000000000E+000
-1.2940683E+000	-1.449123437620928E-002	1.107059972033312E+003	2.000000000000000E+000
-1.2821021E+000	-1.388109424447193E-002	1.109459471972696E+003	2.000000000000000E+000
-1.2701690E+000	-1.334322615296422E-002	1.111858971912079E+003	2.000000000000000E+000
-1.2581525E+000	-1.287842221434543E-002	1.114258571851460E+003	2.000000000000000E+000
-1.2461412E+000	-1.242371424242594E-002	1.116658071790844E+003	2.000000000000000E+000
-1.2341380E+000	-1.196334553529271E-002	1.119057571730227E+003	2.000000000000000E+000
-1.2221631E+000	-1.152942845350519E-002	1.121457171669608E+003	2.000000000000000E+000
-1.2102107E+000	-1.108539884822637E-002	1.123856671608992E+003	2.000000000000000E+000
-1.1981647E+000	-1.059450764812757E-002	1.126256171548375E+003	2.000000000000000E+000
-1.1861392E+000	-1.002019859415895E-002	1.128655771487756E+003	2.000000000000000E+000
-1.1741750E+000	-9.357656631843153E-003	1.131055371427137E+003	2.000000000000000E+000
-1.1622000E+000	-8.575571497475426E-003	1.133454871366521E+003	2.000000000000000E+000
-1.1501819E+000	-7.566555976076257E-003	1.135854371305904E+003	2.000000000000000E+000
-1.1381493E+000	-6.243867649896845E-003	1.138253971245285E+003	2.000000000000000E+000
-1.1261082E+000	-4.514220109681534E-003	1.140663471184416E+003	2.000000000000000E+000
-1.1140802E+000	-2.224839289678350E-003	1.143072971123547E+003	2.000000000000000E+000
-1.1021146E+000	9.616768289445721E-004	1.145472571062928E+003	2.000000000000000E+000
-1.0901636E+000	5.347987282298412E-003	1.147872171002309E+003	2.000000000000000E+000
-1.0779701E+000	1.155405999554632E-002	1.150291570941190E+003	2.000000000000000E+000
-1.0660207E+000	1.974726033232294E-002	1.152691170880571E+003	2.000000000000000E+000
-1.0540241E+000	3.060402308723764E-002	1.155090770819952E+003	2.000000000000000E+000
-1.0420539E+000	4.396681065138958E-002	1.157490170759338E+003	2.000000000000000E+000
-1.0300251E+000	5.796919919628563E-002	1.159889770698719E+003	2.000000000000000E+000
-1.0180414E+000	6.561578281145630E-002	1.162289370638100E+003	2.000000000000000E+000
-1.0060227E+000	5.833519124608511E-002	1.164688870577484E+003	2.000000000000000E+000
-9.9401844E-001	4.512063907712804E-002	1.167088370516867E+003	2.000000000000000E+000
-9.8204172E-001	3.791987444163247E-002	1.169487970456248E+003	2.000000000000000E+000
-9.7004831E-001	3.297125850056071E-002	1.171887470395632E+003	2.000000000000000E+000
-9.5803565E-001	2.897535947831487E-002	1.174286970335015E+003	2.000000000000000E+000
-9.4605225E-001	2.548657603313198E-002	1.176686570274396E+003	2.000000000000000E+000
-9.3405086E-001	2.280332679295910E-002	1.179086170213777E+003	2.000000000000000E+000
-9.2205769E-001	2.052291169857118E-002	1.181485570153163E+003	2.000000000000000E+000
-9.1007489E-001	1.901202525704887E-002	1.183885170092544E+003	2.000000000000000E+000
-8.9803654E-001	1.760224983399170E-002	1.186284770031925E+003	2.000000000000000E+000
-8.8603765E-001	1.668492142728602E-002	1.188684269971309E+003	2.000000000000000E+000
-8.7409359E-001	1.617531499655424E-002	1.191083769910692E+003	2.000000000000000E+000
-8.6208528E-001	1.600211092665295E-002	1.193483369850073E+003	2.000000000000000E+000
-8.5004985E-001	1.610330098151835E-002	1.195882869789457E+003	2.000000000000000E+000
-8.3805174E-001	1.616379383029071E-002	1.198282369728840E+003	2.000000000000000E+000
-8.2605714E-001	1.650057492797241E-002	1.200681969668221E+003	2.000000000000000E+000
-8.1406116E-001	1.667858462222661E-002	1.203081569607602E+003	2.000000000000000E+000
-8.0207181E-001	1.693159896461181E-002	1.205480969546988E+003	2.000000000000000E+000
-7.9005283E-001	1.736921422466503E-002	1.207880569486370E+003	2.000000000000000E+000
-7.7804005E-001	1.781266888834809E-002	1.210280169425751E+003	2.000000000000000E+000
-7.6606423E-001	1.813435969385910E-002	1.212679669365134E+003	2.000000000000000E+000
-7.5404817E-001	1.839929618033244E-002	1.215079169304518E+003	2.000000000000000E+000
-7.4201590E-001	1.888730982265735E-002	1.217478769243899E+003	2.000000000000000E+000
-7.3005688E-001	1.963031791912428E-002	1.219878269183282E+003	2.000000000000000E+000
-7.1806145E-001	1.976392273300134E-002	1.222277769122666E+003	2.000000000000000E+000
-7.0608383E-001	2.009277400212757E-002	1.224677369062047E+003	2.000000000000000E+000
-6.9407129E-001	2.071016238919987E-002	1.227076969001428E+003	2.000000000000000E+000
-6.8209046E-001	2.146127279290867E-002	1.229476368940814E+003	2.000000000000000E+000
-6.7005908E-001	2.228782056049983E-002	1.231875968880195E+003	2.000000000000000E+000
-6.5808648E-001	2.317169949237063E-002	1.234275568819576E+003	2.000000000000000E+000
-6.4610058E-001	2.386734673560237E-002	1.236675068758959E+003	2.000000000000000E+000
-6.3412994E-001	2.457511644042787E-002	1.239074568698343E+003	2.000000000000000E+000
-6.2210113E-001	2.494707198582846E-002	1.241474168637724E+003	2.000000000000000E+000
-6.1008441E-001	2.505375763688472E-002	1.243873668577107E+003	2.000000000000000E+000
-5.9808791E-001	2.479974063807078E-002	1.246273168516491E+003	2.000000000000000E+000
-5.8613026E-001	2.485759498072626E-002	1.248672768455872E+003	2.000000000000000E+000
-5.7409120E-001	2.517778484959604E-002	1.251072368395253E+003	2.000000000000000E+000
-5.6209886E-001	2.559548903567094E-002	1.253471768334639E+003	2.000000000000000E+000
-5.5007958E-001	2.590614626759047E-002	1.255871368274020E+003	2.000000000000000E+000
-5.3814101E-001	2.623317872101222E-002	1.258270968213401E+003	2.000000000000000E+000
-5.2610874E-001	2.676360217846224E-002	1.260670468152784E+003	2.000000000000000E+000
-5.1412845E-001	2.672961313893082E-002	1.263069968092168E+003	2.000000000000000E+000
-5.0214267E-001	2.675712860850395E-002	1.265469568031549E+003	2.000000000000000E+000
-4.9010882E-001	2.641337496711843E-002	1.267869067970933E+003	2.000000000000000E+000
-4.7813517E-001	2.559631059826356E-002	1.270268567910316E+003	2.000000000000000E+000
-4.6612442E-001	2.493341989873840E-002	1.272668167849697E+003	2.000000000000000E+000
-4.5410851E-001	2.432717646782601E-002	1.275067767789078E+003	2.000000000000000E+000
-4.4210202E-001	2.371926300012217E-002	1.277467167728464E+003	2.000000000000000E+000
-4.3012622E-001	2.301353019321140E-002	1.279866767667845E+003	2.000000000000000E+000
-4.1813821E-001	2.258074530012294E-002	1.282266367607226E+003	2.000000000000000E+000
-4.0613040E-001	2.229626196044071E-002	1.284665867546610E+003	2.000000000000000E+000
-3.9415786E-001	2.217147112222144E-002	1.287065367485993E+003	2.000000000000000E+000
-3.8213494E-001	2.207948140340155E-002	1.289464967425374E+003	2.000000000000000E+000
-3.7011579E-001	2.175764367350254E-002	1.291864467364758E+003	2.000000000000000E+000
-3.5814059E-001	2.125807139796024E-002	1.294263967304141E+003	2.000000000000000E+000
-3.4614784E-001	2.095486941697741E-002	1.296663567243522E+003	2.000000000000000E+000
-3.3412263E-001	2.028853989925869E-002	1.299063167182903E+003	2.000000000000000E+000
-3.2214502E-001	1.972061765943548E-002	1.301462567122289E+003	2.000000000000000E+000
-3.1017822E-001	1.899270753480728E-002	1.303862167061670E+003	2.000000000000000E+000
-2.9818612E-001	1.829921654182698E-002	1.306261767001051E+003	2.000000000000000E+000
-2.8618819E-001	1.791491953868232E-002	1.308661266940435E+003	2.000000000000000E+000
-2.7418685E-001	1.763249547767205E-002	1.311060766879818E+003	2.000000000000000E+000
-2.6215872E-001	1.717405531886967E-002	1.313460366819199E+003	2.000000000000000E+000
-2.5019050E-001	1.682826851577851E-002	1.315859866758583E+003	2.000000000000000E+000
-2.3817725E-001	1.679840374829317E-002	1.318259366697966E+003	2.000000000000000E+000
-2.2622104E-001	1.675186062901113E-002	1.320658966637347E+003	2.000000000000000E+000
-2.1421304E-001	1.660477217601494E-002	1.323058566576728E+003	2.000000000000000E+000
-2.0217615E-001	1.649422925324638E-002	1.325457966516115E+003	2.000000000000000E+000
-1.9017854E-001	1.651121732314770E-002	1.327857566455496E+003	2.000000000000000E+000
-1.7818518E-001	1.631340150794752E-002	1.330257166394877E+003	2.000000000000000E+000
-1.6618705E-001	1.613259698523548E-002	1.332656666334260E+003	2.000000000000000E+000
-1.5419784E-001	1.578733347416511E-002	1.335056166273644E+003	2.000000000000000E+000
-1.4222527E-001	1.549163812010115E-002	1.337455766213025E+003	2.000000000000000E+000
-1.3020454E-001	1.500922713035133E-002	1.339855266152408E+003	2.000000000000000E+000
-1.1818971E-001	1.442506389184001E-002	1.342254766091792E+003	2.000000000000000E+000
-1.0787294E-001	1.385814913357405E-002	1.344314366039762E+003	3.000000000000000E+000
-9.5856644E-002	1.312784588636516E-002	1.346713965979143E+003	3.000000000000000E+000
-8.3874747E-002	1.234804569965845E-002	1.349113565918524E+003	3.000000000000000E+000
-7.1881816E-002	1.152825646086329E-002	1.351512965857910E+003	3.000000000000000E+000
-5.9881870E-002	1.071760253550471E-002	1.353912565797291E+003	3.000000000000000E+000
-4.7901452E-002	9.966532036315284E-003	1.356312165736672E+003	3.000000000000000E+000
-3.5888787E-002	9.279761260929539E-003	1.358711665676055E+003	3.000000000000000E+000
-2.3917703E-002	8.695545851948844E-003	1.361111165615439E+003	3.000000000000000E+000
-1.1910970E-002	8.203418142504929E-003	1.363510765554820E+003	3.000000000000000E+000
4.0220104E-005	7.800014488961352E-003	1.365910265494203E+003	3.000000000000000E+000
1.2011217E-002	7.488317057609675E-003	1.368309765433587E+003	3.000000000000000E+000
2.4018582E-002	7.232592410519902E-003	1.370709365372968E+003	3.000000000000000E+000
3.6025740E-002	7.048558268171801E-003	1.373108965312349E+003	3.000000000000000E+000
4.8048180E-002	6.902503968578680E-003	1.375508365251735E+003	3.000000000000000E+000
6.0069982E-002	6.791979343474086E-003	1.377907965191116E+003	3.000000000000000E+000
7.2115771E-002	6.720631330563390E-003	1.380307565130497E+003	3.000000000000000E+000
8.4070928E-002	6.647309232453012E-003	1.382707065069881E+003	3.000000000000000E+000
9.6100785E-002	6.604370970332826E-003	1.385106565009264E+003	3.000000000000000E+000
1.0807016E-001	6.564171894444519E-003	1.387506164948645E+003	3.000000000000000E+000
1.2003662E-001	6.527690160630158E-003	1.389905664888029E+003	3.000000000000000E+000
1.3203862E-001	6.490663809360225E-003	1.392305164827412E+003	3.000000000000000E+000
1.4401838E-001	6.450763762460746E-003	1.394704764766793E+003	3.000000000000000E+000
1.5602215E-001	6.406539597056491E-003	1.397104364706174E+003	3.000000000000000E+000
