mode	ox/red	error	control changes	counter inc.	time/s	control/V	Ewe/V	<I>/mA	cycle number	(Q-Qo)/C	I Range	step time/s	P/W	
2	1	0	1	0	6.352999839509721E-001	-7.9520874E-002	-6.3579842E-002	1.839302968080678E-004	1.000000000000000E+000	7.4021500E-008	53	6.325999840191798E-001	-1.1694259E-008
2	1	0	1	0	7.552999809195171E-001	-6.7520648E-002	-5.9617501E-002	1.533233592889030E-004	1.000000000000000E+000	9.1575522E-008	53	7.525999809877248E-001	-9.1407557E-009
2	1	0	1	0	9.052999771301984E-001	-5.2520365E-002	-4.9492486E-002	2.173365902980672E-004	1.000000000000000E+000	1.1891735E-007	54	9.025999771984061E-001	-1.0756528E-008
2	1	0	1	0	1.025299974098743E+000	-4.0520135E-002	-3.9007649E-002	2.591178967117753E-004	1.000000000000000E+000	1.4745660E-007	54	1.022599974166951E+000	-1.0107580E-008
2	1	0	1	0	1.145299971067288E+000	-2.8519906E-002	-2.7706780E-002	2.843947926714436E-004	1.000000000000000E+000	1.7975432E-007	54	1.142599971135496E+000	-7.8796640E-009
2	1	0	1	0	1.265299968035833E+000	-1.6519682E-002	-1.6052317E-002	3.048507220752149E-004	1.000000000000000E+000	2.1515883E-007	54	1.262599968104041E+000	-4.8935602E-009
2	1	0	1	0	1.385299965004378E+000	-4.5194547E-003	-4.2247926E-003	3.334793799319386E-004	1.000000000000000E+000	2.5370144E-007	54	1.382599965072586E+000	-1.4088812E-009
2	1	0	1	0	1.505299961972923E+000	7.4807690E-003	7.6567316E-003	3.695449622484939E-004	1.000000000000000E+000	2.9602978E-007	54	1.502599962041131E+000	2.8295066E-009
2	1	0	1	0	1.625299958941469E+000	1.9480990E-002	1.9593256E-002	4.200949261590013E-004	1.000000000000000E+000	3.4315886E-007	54	1.622599959009676E+000	8.2310274E-009
2	1	0	1	0	1.745299955910014E+000	3.1481210E-002	3.1538911E-002	4.811816327367553E-004	1.000000000000000E+000	3.9672634E-007	54	1.742599955978221E+000	1.5175944E-008
2	1	0	1	0	1.865299952878559E+000	4.3481432E-002	4.3442041E-002	5.622251573947305E-004	1.000000000000000E+000	4.5907515E-007	54	1.862599952946766E+000	2.4424208E-008
2	1	0	1	0	1.985299949847104E+000	5.5481654E-002	5.5337600E-002	6.732314289800588E-004	1.000000000000000E+000	5.3325471E-007	54	1.982599949915311E+000	3.7255013E-008
2	1	0	1	0	2.105299946815649E+000	6.7481875E-002	6.7241549E-002	8.008145760552161E-004	1.000000000000000E+000	6.2188474E-007	54	2.102599946883856E+000	5.3848012E-008
2	1	0	1	0	2.225299943784194E+000	7.9482101E-002	7.9213470E-002	9.366440259011323E-004	1.000000000000000E+000	7.2602433E-007	54	2.222599943852401E+000	7.4194823E-008
2	1	0	1	0	2.375299939994875E+000	9.4482362E-002	9.6538432E-002	1.295268177806937E-003	1.000000000000000E+000	8.8088365E-007	53	2.372599940063083E+000	1.2504316E-007
2	1	0	1	0	2.495299936963420E+000	1.0648260E-001	1.0715386E-001	2.545387880119335E-003	1.000000000000000E+000	1.0834415E-006	53	2.492599937031628E+000	2.7274811E-007
2	1	0	1	0	2.615299933931965E+000	1.1848281E-001	1.1842050E-001	4.713914553062554E-003	1.000000000000000E+000	1.5448448E-006	53	2.612599934000173E+000	5.5822414E-007
2	1	0	1	0	2.735299930900510E+000	1.3048303E-001	1.3052443E-001	4.778376671469173E-003	1.000000000000000E+000	2.1214994E-006	53	2.732599930968718E+000	6.2369486E-007
2	1	0	1	0	2.855299927869055E+000	1.4248325E-001	1.4262696E-001	4.672218488098165E-003	1.000000000000000E+000	2.6890805E-006	53	2.852599927937263E+000	6.6638432E-007
2	1	0	1	0	2.975299924837600E+000	1.5448347E-001	1.5464415E-001	4.614523971925001E-003	1.000000000000000E+000	3.2461273E-006	53	2.972599924905808E+000	7.1360910E-007
2	1	0	1	0	3.095299921806145E+000	1.6648372E-001	1.6666907E-001	4.538452321234558E-003	1.000000000000000E+000	3.7954162E-006	53	3.092599921874353E+000	7.5641964E-007
2	1	0	1	0	3.215299918774690E+000	1.7848392E-001	1.7868783E-001	4.427601235558701E-003	1.000000000000000E+000	4.3336800E-006	53	3.212599918842898E+000	7.9115841E-007
2	1	0	1	0	3.335299915743235E+000	1.9048415E-001	1.9071324E-001	4.230827919341026E-003	1.000000000000000E+000	4.8565171E-006	53	3.332599915811443E+000	8.0687488E-007
2	1	0	1	0	3.455299912711780E+000	2.0248438E-001	2.0307717E-001	2.513530700328032E-003	1.000000000000000E+000	5.2530354E-006	53	3.452599912779988E+000	5.1044071E-007
2	1	0	1	0	3.575299909680325E+000	2.1448459E-001	2.1525146E-001	9.192878597668458E-004	1.000000000000000E+000	5.4527782E-006	53	3.572599909748533E+000	1.9787805E-007
2	1	0	1	0	3.695299906648870E+000	2.2648481E-001	2.2703767E-001	6.159564303862184E-004	1.000000000000000E+000	5.5400747E-006	53	3.692599906717078E+000	1.3984531E-007
2	1	0	1	0	3.815299903617415E+000	2.3848502E-001	2.3888306E-001	5.116203492138028E-004	1.000000000000000E+000	5.6069766E-006	53	3.812599903685623E+000	1.2221744E-007
2	1	0	1	0	3.935299900585960E+000	2.5048524E-001	2.5083759E-001	4.590632800342163E-004	1.000000000000000E+000	5.6651393E-006	53	3.932599900654168E+000	1.1515033E-007
2	1	0	1	0	4.085299896796641E+000	2.6548553E-001	2.6515526E-001	4.274700488424624E-004	1.000000000000000E+000	5.7312382E-006	54	4.082599896864849E+000	1.1334593E-007
2	1	0	1	0	4.205299893765186E+000	2.7748573E-001	2.7750263E-001	4.029028179116803E-004	1.000000000000000E+000	5.7812636E-006	54	4.202599893833394E+000	1.1180659E-007
2	1	0	1	0	4.325299890733731E+000	2.8948596E-001	2.8963652E-001	3.891125168583266E-004	1.000000000000000E+000	5.8288269E-006	54	4.322599890801939E+000	1.1270119E-007
2	1	0	1	0	4.445299887702276E+000	3.0148619E-001	3.0168754E-001	3.799938081249861E-004	1.000000000000000E+000	5.8745336E-006	54	4.442599887770484E+000	1.1463940E-007
2	1	0	1	0	4.565299884670821E+000	3.1348643E-001	3.1376025E-001	3.632982796103633E-004	1.000000000000000E+000	5.9187873E-006	54	4.562599884739029E+000	1.1398856E-007
2	1	0	1	0	4.685299881639367E+000	3.2548663E-001	3.2573316E-001	3.523609997767821E-004	1.000000000000000E+000	5.9617914E-006	54	4.682599881707574E+000	1.1477566E-007
2	1	0	1	0	4.805299878607912E+000	3.3748686E-001	3.3775786E-001	3.447670576752406E-004	1.000000000000000E+000	6.0039661E-006	54	4.802599878676119E+000	1.1644778E-007
2	1	0	1	0	4.925299875576457E+000	3.4948707E-001	3.4971410E-001	3.441299142363991E-004	1.000000000000000E+000	6.0454140E-006	54	4.922599875644664E+000	1.2034708E-007
2	1	0	1	0	5.045299872545002E+000	3.6148730E-001	3.6172375E-001	3.416619919799713E-004	1.000000000000000E+000	6.0863194E-006	54	5.042599872613209E+000	1.2358726E-007
2	1	0	1	0	5.165299869513547E+000	3.7348753E-001	3.7375510E-001	3.366048723097738E-004	1.000000000000000E+000	6.1266924E-006	54	5.162599869581754E+000	1.2580779E-007
2	1	0	1	0	5.285299866482092E+000	3.8548771E-001	3.8573474E-001	3.296953862386349E-004	1.000000000000000E+000	6.1667424E-006	54	5.282599866550299E+000	1.2717496E-007
2	1	0	1	0	5.405399863448110E+000	3.9748800E-001	3.9775527E-001	3.266925085240891E-004	1.000000000000000E+000	6.2064414E-006	54	5.402699863516318E+000	1.2994367E-007
2	0	0	1	0	5.513399860719801E+000	3.9173788E-001	3.9276114E-001	-5.571543339173821E-005	1.000000000000000E+000	6.2166582E-006	54	3.999999898951501E-002	-2.1882856E-008
2	0	0	1	0	5.633499857685820E+000	3.7973762E-001	3.8044491E-001	-9.462220724349595E-005	1.000000000000000E+000	6.2072627E-006	54	1.600999959555338E-001	-3.5998539E-008
2	0	0	1	0	5.753499854654365E+000	3.6773741E-001	3.6827359E-001	-1.118133998286041E-004	1.000000000000000E+000	6.1950268E-006	54	2.800999929240788E-001	-4.1177923E-008
2	0	0	1	0	5.873499851622910E+000	3.5573718E-001	3.5618380E-001	-1.255295957232343E-004	1.000000000000000E+000	6.1809606E-006	54	4.000999898926239E-001	-4.4711609E-008
2	0	0	1	0	5.993499848591455E+000	3.4373698E-001	3.4413263E-001	-1.313113022782224E-004	1.000000000000000E+000	6.1655705E-006	54	5.200999868611689E-001	-4.5188504E-008
2	0	0	1	0	6.113499845560000E+000	3.3173671E-001	3.3211347E-001	-1.377211707622532E-004	1.000000000000000E+000	6.1491742E-006	54	6.400999838297139E-001	-4.5739057E-008
2	0	0	1	0	6.233499842528545E+000	3.1973654E-001	3.2012424E-001	-1.489606170771963E-004	1.000000000000000E+000	6.1318142E-006	54	7.600999807982589E-001	-4.7685905E-008
2	0	0	1	0	6.353499839497090E+000	3.0773628E-001	3.0811512E-001	-1.564479075420381E-004	1.000000000000000E+000	6.1136584E-006	54	8.800999777668039E-001	-4.8203965E-008
2	0	0	1	0	6.473499836465635E+000	2.9573607E-001	2.9610187E-001	-1.619276793947033E-004	1.000000000000000E+000	6.0948341E-006	54	1.000099974735349E+000	-4.7947090E-008
2	0	0	1	0	6.593499833434180E+000	2.8373584E-001	2.8409082E-001	-1.638918328052088E-004	1.000000000000000E+000	6.0753523E-006	54	1.120099971703894E+000	-4.6560164E-008
2	0	0	1	0	6.713499830402725E+000	2.7173564E-001	2.7206981E-001	-1.658165876318415E-004	1.000000000000000E+000	6.0552738E-006	54	1.240099968672439E+000	-4.5113687E-008
2	0	0	1	0	6.833499827371270E+000	2.5973541E-001	2.6009026E-001	-1.742671731444318E-004	1.000000000000000E+000	6.0346392E-006	54	1.360099965640984E+000	-4.5325194E-008
2	0	0	1	0	6.953499824339815E+000	2.4773520E-001	2.4807790E-001	-1.813080615395686E-004	1.000000000000000E+000	6.0134485E-006	54	1.480099962609529E+000	-4.4978524E-008
2	0	0	1	0	7.073499821308360E+000	2.3573498E-001	2.3609708E-001	-1.852059591284233E-004	1.000000000000000E+000	5.9917511E-006	54	1.600099959578074E+000	-4.3726587E-008
2	0	0	1	0	7.193499818276905E+000	2.2373477E-001	2.2406314E-001	-1.867315046682879E-004	1.000000000000000E+000	5.9695562E-006	54	1.720099956546619E+000	-4.1839648E-008
2	0	0	1	0	7.313499815245450E+000	2.1173453E-001	2.1207583E-001	-1.877565683082094E-004	1.000000000000000E+000	5.9468539E-006	54	1.840099953515164E+000	-3.9818630E-008
2	0	0	1	0	7.433499812213995E+000	1.9973432E-001	2.0008139E-001	-1.958483340074408E-004	1.000000000000000E+000	5.9236158E-006	54	1.960099950483709E+000	-3.9185608E-008
2	0	0	1	0	7.553499809182540E+000	1.8773410E-001	1.8810499E-001	-2.025982373083934E-004	1.000000000000000E+000	5.8998153E-006	54	2.080099947452254E+000	-3.8109739E-008
2	0	0	1	0	7.673499806151085E+000	1.7573386E-001	1.7609046E-001	-2.083702572196236E-004	1.000000000000000E+000	5.8754172E-006	54	2.200099944420799E+000	-3.6692015E-008
2	0	0	1	0	7.793499803119630E+000	1.6373365E-001	1.6406660E-001	-2.112481088063414E-004	1.000000000000000E+000	5.8503852E-006	54	2.320099941389344E+000	-3.4658758E-008
2	0	0	1	0	7.913499800088175E+000	1.5173343E-001	1.5206653E-001	-2.135112907808432E-004	1.000000000000000E+000	5.8246628E-006	54	2.440099938357889E+000	-3.2467920E-008
2	0	0	1	0	8.033499797056720E+000	1.3973320E-001	1.4009976E-001	-2.223202534003613E-004	1.000000000000000E+000	5.7982325E-006	54	2.560099935326434E+000	-3.1147014E-008
2	0	0	1	0	8.153499794025265E+000	1.2773298E-001	1.2811066E-001	-2.321369356848109E-004	1.000000000000000E+000	5.7710449E-006	54	2.680099932294979E+000	-2.9739217E-008
2	0	0	1	0	8.273499790993810E+000	1.1573277E-001	1.1609536E-001	-2.389121395169795E-004	1.000000000000000E+000	5.7430566E-006	54	2.800099929263524E+000	-2.7736592E-008
2	0	0	1	0	8.393499787962355E+000	1.0373255E-001	1.0408823E-001	-2.436715415016170E-004	1.000000000000000E+000	5.7142756E-006	54	2.920099926232069E+000	-2.5363340E-008
2	0	0	1	0	8.513499784930900E+000	9.1732331E-002	9.2083253E-002	-2.456283841737503E-004	1.000000000000000E+000	5.6847066E-006	54	3.040099923200614E+000	-2.2618261E-008
2	0	0	1	0	8.633499781899445E+000	7.9732098E-002	8.0101863E-002	-2.544290266146363E-004	1.000000000000000E+000	5.6543568E-006	54	3.160099920169159E+000	-2.0380240E-008
2	0	0	1	0	8.753499778867990E+000	6.7731880E-002	6.8115741E-002	-2.653453818543703E-004	1.000000000000000E+000	5.6232047E-006	54	3.280099917137704E+000	-1.8074198E-008
2	0	0	1	0	8.873499775836535E+000	5.5731662E-002	5.6108437E-002	-2.727753817626044E-004	1.000000000000000E+000	5.5912201E-006	54	3.400099914106249E+000	-1.5305000E-008
2	0	0	1	0	8.993499772805080E+000	4.3731436E-002	4.4080358E-002	-2.790207388542239E-004	1.000000000000000E+000	5.5583396E-006	54	3.520099911074794E+000	-1.2299334E-008
2	0	0	1	0	9.113499769773625E+000	3.1731218E-002	3.2062661E-002	-2.828231940517732E-004	1.000000000000000E+000	5.5244959E-006	54	3.640099908043339E+000	-9.0680645E-009
2	0	0	1	0	9.233499766742170E+000	1.9730994E-002	2.0112099E-002	-2.947767213630986E-004	1.000000000000000E+000	5.4895113E-006	54	3.760099905011884E+000	-5.9285785E-009
2	0	0	1	0	9.353499763710715E+000	7.7307732E-003	8.1012193E-003	-3.118321708074209E-004	1.000000000000000E+000	5.4531592E-006	54	3.880099901980429E+000	-2.5262208E-009
2	0	0	1	0	9.473499760679260E+000	-4.2694500E-003	-3.8587344E-003	-3.301973602288927E-004	1.000000000000000E+000	5.4149978E-006	54	4.000099898948974E+000	1.2741439E-009
2	0	0	1	0	9.593499757647805E+000	-1.6269678E-002	-1.5846690E-002	-3.587612935293896E-004	1.000000000000000E+000	5.3740741E-006	54	4.120099895917519E+000	5.6851790E-009
2	0	0	1	0	9.713499754616350E+000	-2.8269902E-002	-2.7760036E-002	-4.198608212737267E-004	1.000000000000000E+000	5.3278777E-006	54	4.240099892886064E+000	1.1655351E-008
2	0	0	1	0	9.833499751584895E+000	-4.0270131E-002	-3.9384007E-002	-6.236049812287092E-004	1.000000000000000E+000	5.2663622E-006	54	4.360099889854610E+000	2.4560062E-008
2	0	0	1	0	9.953499748553440E+000	-5.2270353E-002	-5.0964944E-002	-9.306894330324139E-004	1.000000000000000E+000	5.1756870E-006	54	4.480099886823155E+000	4.7432536E-008
2	0	0	1	0	1.010349974476412E+001	-6.7270644E-002	-6.7584544E-002	-1.684540492889304E-003	1.000000000000000E+000	4.9774658E-006	53	4.630099883033836E+000	1.1384890E-007
2	0	0	1	0	1.022349974173267E+001	-7.9270869E-002	-7.9159252E-002	-1.919612506714224E-003	1.000000000000000E+000	4.7599046E-006	53	4.750099880002381E+000	1.5195509E-007
2	0	0	1	0	1.034349973870121E+001	-9.1271095E-002	-9.1007628E-002	-2.009116837578637E-003	1.000000000000000E+000	4.5235474E-006	53	4.870099876970926E+000	1.8284496E-007
2	0	0	1	0	1.046349973566976E+001	-1.0327132E-001	-1.0296384E-001	-2.023512047067607E-003	1.000000000000000E+000	4.2809511E-006	53	4.990099873939471E+000	2.0834858E-007
2	0	0	1	0	1.058349973263830E+001	-1.1527155E-001	-1.1494607E-001	-2.004554084341293E-003	1.000000000000000E+000	4.0389054E-006	53	5.110099870908016E+000	2.3041562E-007
2	0	0	1	0	1.070349972960685E+001	-1.2727177E-001	-1.2695254E-001	-1.938302971903672E-003	1.000000000000000E+000	3.8023090E-006	53	5.230099867876561E+000	2.4607249E-007
2	0	0	1	0	1.082349972657539E+001	-1.3927200E-001	-1.3895772E-001	-1.818967458367963E-003	1.000000000000000E+000	3.5770172E-006	53	5.350099864845106E+000	2.5275958E-007
2	0	0	1	0	1.094359972354141E+001	-1.5127225E-001	-1.5097345E-001	-1.652656745818604E-003	1.000000000000000E+000	3.3686845E-006	53	5.470199861811125E+000	2.4950731E-007
2	0	0	1	0	1.106359972050996E+001	-1.6327246E-001	-1.6300815E-001	-1.474531565153571E-003	1.000000000000000E+000	3.1805723E-006	53	5.590199858779670E+000	2.4036066E-007
2	0	0	1	0	1.118359971747850E+001	-1.7527269E-001	-1.7497030E-001	-1.322871263792789E-003	1.000000000000000E+000	3.0126184E-006	53	5.710199855748215E+000	2.3146318E-007
2	0	0	1	0	1.130359971444705E+001	-1.8727291E-001	-1.8697749E-001	-1.224958619001300E-003	1.000000000000000E+000	2.8601455E-006	53	5.830199852716760E+000	2.2903968E-007
2	0	0	1	0	1.142359971141559E+001	-1.9927314E-001	-1.9897252E-001	-1.141342890843007E-003	1.000000000000000E+000	2.7187968E-006	53	5.950199849685305E+000	2.2709588E-007
2	0	0	1	0	1.154359970838414E+001	-2.1127337E-001	-2.1095140E-001	-1.080661980422927E-003	1.000000000000000E+000	2.5857548E-006	53	6.070199846653850E+000	2.2796716E-007
2	0	0	1	0	1.166359970535268E+001	-2.2327362E-001	-2.2294991E-001	-1.039295563445689E-003	1.000000000000000E+000	2.4582873E-006	53	6.190199843622395E+000	2.3171084E-007
2	0	0	1	0	1.178359970232123E+001	-2.3527382E-001	-2.3494931E-001	-9.936244027089307E-004	1.000000000000000E+000	2.3358764E-006	53	6.310199840590940E+000	2.3345136E-007
2	0	0	1	0	1.190359969928977E+001	-2.4727407E-001	-2.4694999E-001	-9.674117532705896E-004	1.000000000000000E+000	2.2183849E-006	53	6.430199837559485E+000	2.3890232E-007
2	0	0	1	0	1.202359969625832E+001	-2.5927430E-001	-2.5894880E-001	-9.329803128097919E-004	1.000000000000000E+000	2.1048568E-006	53	6.550199834528030E+000	2.4159414E-007
2	0	0	1	0	1.214359969322686E+001	-2.7127454E-001	-2.7096543E-001	-9.010334186376132E-004	1.000000000000000E+000	1.9950137E-006	53	6.670199831496575E+000	2.4414891E-007
2	0	0	1	0	1.226359969019541E+001	-2.8327474E-001	-2.8294364E-001	-8.716622655707707E-004	1.000000000000000E+000	1.8885358E-006	53	6.790199828465120E+000	2.4663129E-007
2	0	0	1	0	1.238359968716395E+001	-2.9527494E-001	-2.9493865E-001	-8.428831108321030E-004	1.000000000000000E+000	1.7852065E-006	53	6.910199825433665E+000	2.4859881E-007
2	0	0	1	0	1.250359968413250E+001	-3.0727521E-001	-3.0694577E-001	-8.195729208802533E-004	1.000000000000000E+000	1.6855828E-006	53	7.030199822402210E+000	2.5156444E-007
2	0	0	1	0	1.262359968110104E+001	-3.1927541E-001	-3.1893381E-001	-7.951746941898810E-004	1.000000000000000E+000	1.5891270E-006	53	7.150199819370755E+000	2.5360811E-007
2	0	0	1	0	1.274359967806959E+001	-3.3127567E-001	-3.3092809E-001	-7.678445599491488E-004	1.000000000000000E+000	1.4962868E-006	53	7.270199816339300E+000	2.5410134E-007
2	0	0	1	0	1.286359967503813E+001	-3.4327593E-001	-3.4295201E-001	-7.271401450349331E-004	1.000000000000000E+000	1.4066834E-006	53	7.390199813307845E+000	2.4937418E-007
2	0	0	1	0	1.298359967200668E+001	-3.5527611E-001	-3.5496610E-001	-7.005592763830865E-004	1.000000000000000E+000	1.3203386E-006	53	7.510199810276390E+000	2.4867481E-007
2	0	0	1	0	1.310359966897522E+001	-3.6727634E-001	-3.6695865E-001	-6.806053759191855E-004	1.000000000000000E+000	1.2373315E-006	53	7.630199807244935E+000	2.4975404E-007
2	0	0	1	0	1.322359966594377E+001	-3.7927657E-001	-3.7896320E-001	-6.541978153997902E-004	1.000000000000000E+000	1.1575553E-006	53	7.750199804213480E+000	2.4791689E-007
2	0	0	1	0	1.334359966291231E+001	-3.9127678E-001	-3.9095339E-001	-6.276833956917471E-004	1.000000000000000E+000	1.0810535E-006	53	7.870199801182025E+000	2.4539494E-007
2	0	0	1	0	1.346359965988086E+001	-4.0327701E-001	-4.0296137E-001	-5.949133762586857E-004	1.000000000000000E+000	1.0078633E-006	53	7.990199798150570E+000	2.3972711E-007
2	0	0	1	0	1.358359965684940E+001	-4.1527721E-001	-4.1498372E-001	-5.637348891282690E-004	1.000000000000000E+000	9.3764913E-007	53	8.110199795119115E+000	2.3394080E-007
2	0	0	1	0	1.370359965381795E+001	-4.2727745E-001	-4.2698669E-001	-5.435555616021374E-004	1.000000000000000E+000	8.7062284E-007	53	8.230199792087660E+000	2.3209100E-007
2	0	0	1	0	1.382359965078649E+001	-4.3927768E-001	-4.3897822E-001	-5.237489069403675E-004	1.000000000000000E+000	8.0673061E-007	53	8.350199789056205E+000	2.2991436E-007
2	0	0	1	0	1.394359964775504E+001	-4.5127794E-001	-4.5097864E-001	-5.008491771460212E-004	1.000000000000000E+000	7.4554339E-007	53	8.470199786024750E+000	2.2587228E-007
2	0	0	1	0	1.406359964472358E+001	-4.6327814E-001	-4.6296212E-001	-4.724465718120227E-004	1.000000000000000E+000	6.8699114E-007	53	8.590199782993295E+000	2.1872486E-007
2	0	0	1	0	1.418359964169213E+001	-4.7527838E-001	-4.7498265E-001	-4.426588325414232E-004	1.000000000000000E+000	6.3155596E-007	53	8.710199779961840E+000	2.1025527E-007
2	0	0	1	0	1.433359963790281E+001	-4.9027866E-001	-4.8935103E-001	-4.173319425407598E-004	1.000000000000000E+000	5.6606933E-007	54	8.860199776172522E+000	2.0422182E-007
2	0	0	1	0	1.445359963487135E+001	-5.0227892E-001	-5.0167364E-001	-4.031256162513510E-004	1.000000000000000E+000	5.1657361E-007	54	8.980199773141067E+000	2.0223750E-007
2	0	0	1	0	1.457359963183990E+001	-5.1427919E-001	-5.1386017E-001	-3.853359939088551E-004	1.000000000000000E+000	4.6949381E-007	54	9.100199770109612E+000	1.9800882E-007
2	0	0	1	0	1.469359962880844E+001	-5.2627945E-001	-5.2591950E-001	-3.683823654176350E-004	1.000000000000000E+000	4.2468341E-007	54	9.220199767078157E+000	1.9373947E-007
2	0	0	1	0	1.481359962577699E+001	-5.3827959E-001	-5.3799456E-001	-3.448564893708600E-004	1.000000000000000E+000	3.8209492E-007	54	9.340199764046702E+000	1.8553092E-007
2	0	0	1	0	1.493359962274553E+001	-5.5027980E-001	-5.5004102E-001	-3.216983861358868E-004	1.000000000000000E+000	3.4172359E-007	54	9.460199761015247E+000	1.7694731E-007
2	0	0	1	0	1.505359961971408E+001	-5.6228006E-001	-5.6199354E-001	-3.117267928742377E-004	1.000000000000000E+000	3.0337043E-007	54	9.580199757983792E+000	1.7518845E-007
2	0	0	1	0	1.517359961668262E+001	-5.7428026E-001	-5.7399648E-001	-2.999293567633936E-004	1.000000000000000E+000	2.6684381E-007	54	9.700199754952337E+000	1.7215839E-007
2	0	0	1	0	1.529359961365117E+001	-5.8628052E-001	-5.8598310E-001	-2.869434354848144E-004	1.000000000000000E+000	2.3201952E-007	54	9.820199751920882E+000	1.6814400E-007
2	0	0	1	0	1.541359961061971E+001	-5.9828073E-001	-5.9805167E-001	-2.696722714600483E-004	1.000000000000000E+000	1.9882982E-007	54	9.940199748889427E+000	1.6127795E-007
2	0	0	1	1	1.552409960782825E+001	-5.9068060E-001	-5.9044087E-001	-2.505427221298415E-004	1.000000000000000E+000	1.7054572E-007	54	1.005069974609796E+001	1.4793066E-007
2	0	0	1	1	1.564409960479679E+001	-5.7868034E-001	-5.7845455E-001	-2.341998445608024E-004	1.000000000000000E+000	1.4184798E-007	54	1.017069974306651E+001	1.3547397E-007
2	0	0	1	1	1.576409960176534E+001	-5.6668007E-001	-5.6647992E-001	-2.174875035299683E-004	1.000000000000000E+000	1.1492586E-007	54	1.029069974003505E+001	1.2320230E-007
2	0	0	1	1	1.588409959873388E+001	-5.5467987E-001	-5.5451387E-001	-1.980338129585657E-004	1.000000000000000E+000	8.9674693E-008	54	1.041069973700360E+001	1.0981250E-007
2	0	0	1	1	1.600409959570243E+001	-5.4267961E-001	-5.4249197E-001	-1.906488179276057E-004	1.000000000000000E+000	6.5965899E-008	54	1.053069973397214E+001	1.0342546E-007
2	0	0	1	1	1.612409959267097E+001	-5.3067940E-001	-5.3046793E-001	-1.820234510170804E-004	1.000000000000000E+000	4.3747193E-008	54	1.065069973094069E+001	9.6557606E-008
2	0	0	1	1	1.624409958963952E+001	-5.1867920E-001	-5.1847976E-001	-1.694248905239519E-004	1.000000000000000E+000	2.3023766E-008	54	1.077069972790923E+001	8.7843375E-008
2	0	0	1	1	1.636409958660806E+001	-5.0667894E-001	-5.0648874E-001	-1.544040551330591E-004	1.000000000000000E+000	3.8072487E-009	54	1.089069972487778E+001	7.8203918E-008
2	0	0	1	1	1.648409958357661E+001	-4.9467877E-001	-4.9451134E-001	-1.361956344248434E-004	1.000000000000000E+000	-1.3888278E-008	54	1.101069972184632E+001	6.7350285E-008
2	0	0	1	1	1.660409958054515E+001	-4.8267847E-001	-4.8248154E-001	-1.262706174590339E-004	1.000000000000000E+000	-3.0064978E-008	54	1.113069971881487E+001	6.0923242E-008
2	0	0	1	1	1.672409957751370E+001	-4.7067827E-001	-4.7047639E-001	-1.187138368599649E-004	1.000000000000000E+000	-4.4671513E-008	54	1.125069971578341E+001	5.5852059E-008
2	0	0	1	1	1.684409957448224E+001	-4.5867804E-001	-4.5848417E-001	-1.042005277045257E-004	1.000000000000000E+000	-5.7673503E-008	54	1.137069971275196E+001	4.7774293E-008
2	0	0	1	1	1.696409957145079E+001	-4.4667780E-001	-4.4649866E-001	-8.757080009356446E-005	1.000000000000000E+000	-6.8910623E-008	54	1.149069970972050E+001	3.9100247E-008
2	0	0	1	1	1.708409956841933E+001	-4.3467760E-001	-4.3452632E-001	-6.520108777616088E-005	1.000000000000000E+000	-7.8249656E-008	54	1.161069970668905E+001	2.8331590E-008
2	0	0	1	1	1.720409956538788E+001	-4.2267734E-001	-4.2251429E-001	-5.016729366008350E-005	1.000000000000000E+000	-8.5619128E-008	54	1.173069970365759E+001	2.1196399E-008
2	0	0	1	1	1.732409956235642E+001	-4.1067711E-001	-4.1049051E-001	-3.813627686818775E-005	1.000000000000000E+000	-9.0914362E-008	54	1.185069970062614E+001	1.5654580E-008
2	0	0	1	1	1.747409955856710E+001	-3.9567685E-001	-3.9532682E-001	-1.235960497402783E-005	1.000000000000000E+000	-9.4570801E-008	55	1.200069969683682E+001	4.8860835E-009
2	1	0	1	1	1.759409955553565E+001	-3.8367662E-001	-3.8377202E-001	5.499022732743825E-006	1.000000000000000E+000	-9.4872526E-008	55	2.499999936844688E-002	-2.1103710E-009
2	1	0	1	1	1.771409955250419E+001	-3.7167639E-001	-3.7202299E-001	2.706480061498906E-005	1.000000000000000E+000	-9.2697803E-008	55	1.449999963369919E-001	-1.0068728E-008
2	1	0	1	1	1.783409954947274E+001	-3.5967618E-001	-3.6030009E-001	5.190023891729028E-005	1.000000000000000E+000	-8.7880466E-008	55	2.649999933055369E-001	-1.8699660E-008
2	1	0	1	1	1.795409954644128E+001	-3.4767589E-001	-3.4840688E-001	7.791926373225459E-005	1.000000000000000E+000	-8.0289055E-008	55	3.849999902740819E-001	-2.7147607E-008
2	1	0	1	1	1.807409954340983E+001	-3.3567575E-001	-3.3634275E-001	9.930173715010061E-005	1.000000000000000E+000	-6.9866353E-008	55	5.049999872426270E-001	-3.3399420E-008
2	1	0	1	1	1.822409953962051E+001	-3.2067543E-001	-3.1948954E-001	1.324288430601466E-004	1.000000000000000E+000	-5.2055185E-008	54	6.549999834533082E-001	-4.2309630E-008
2	1	0	1	1	1.834409953658906E+001	-3.0867520E-001	-3.0807161E-001	1.512161585325252E-004	1.000000000000000E+000	-3.4780950E-008	54	7.749999804218533E-001	-4.6585406E-008
2	1	0	1	1	1.846409953355760E+001	-2.9667494E-001	-2.9632449E-001	1.726564055611172E-004	1.000000000000000E+000	-1.4996424E-008	54	8.949999773903983E-001	-5.1162321E-008
2	1	0	1	1	1.858409953052615E+001	-2.8467476E-001	-2.8445640E-001	1.969144514942940E-004	1.000000000000000E+000	7.2169479E-009	54	1.014999974358943E+000	-5.6013576E-008
2	1	0	1	1	1.870409952749469E+001	-2.7267450E-001	-2.7248833E-001	2.160982426225337E-004	1.000000000000000E+000	3.1612743E-008	54	1.134999971327488E+000	-5.8884247E-008
2	1	0	1	1	1.882409952446324E+001	-2.6067430E-001	-2.6049384E-001	2.223914761949029E-004	1.000000000000000E+000	5.7733395E-008	54	1.254999968296033E+000	-5.7931612E-008
2	1	0	1	1	1.894409952143178E+001	-2.4867408E-001	-2.4847423E-001	2.294694805720565E-004	1.000000000000000E+000	8.5128178E-008	54	1.374999965264578E+000	-5.7017253E-008
2	1	0	1	1	1.906409951840033E+001	-2.3667386E-001	-2.3647323E-001	2.351575128366912E-004	1.000000000000000E+000	1.1335133E-007	54	1.494999962233123E+000	-5.5608457E-008
2	1	0	1	1	1.918409951536887E+001	-2.2467363E-001	-2.2449191E-001	2.408353149121469E-004	1.000000000000000E+000	1.4202995E-007	54	1.614999959201668E+000	-5.4065580E-008
2	1	0	1	1	1.930409951233742E+001	-2.1267341E-001	-2.1247628E-001	2.448122078174929E-004	1.000000000000000E+000	1.7078203E-007	54	1.734999956170213E+000	-5.2016787E-008
2	1	0	1	1	1.942409950930596E+001	-2.0067316E-001	-2.0045657E-001	2.389182725931714E-004	1.000000000000000E+000	1.9952012E-007	54	1.854999953138758E+000	-4.7892737E-008
2	1	0	1	1	1.954409950627451E+001	-1.8867292E-001	-1.8845224E-001	2.348084637150269E-004	1.000000000000000E+000	2.2811936E-007	54	1.974999950107303E+000	-4.4250182E-008
2	1	0	1	1	1.966409950324305E+001	-1.7667271E-001	-1.7644711E-001	2.349798112885283E-004	1.000000000000000E+000	2.5661674E-007	54	2.094999947075848E+000	-4.1461508E-008
2	1	0	1	1	1.978409950021160E+001	-1.6467248E-001	-1.6446689E-001	2.380478140268046E-004	1.000000000000000E+000	2.8513108E-007	54	2.214999944044393E+000	-3.9150983E-008
2	1	0	1	1	1.990409949718014E+001	-1.5267226E-001	-1.5250927E-001	2.441894259450437E-004	1.000000000000000E+000	3.1376592E-007	54	2.334999941012939E+000	-3.7241151E-008
2	1	0	1	1	2.001659949433815E+001	-1.4142206E-001	-1.4121674E-001	2.396448465757112E-004	2.000000000000000E+000	3.4076419E-007	54	2.447499938170949E+000	-3.3841864E-008
2	1	0	1	1	2.013669949130417E+001	-1.2942182E-001	-1.2924586E-001	2.480341381373291E-004	2.000000000000000E+000	3.6989400E-007	54	2.567599935136968E+000	-3.2057386E-008
2	1	0	1	1	2.025669948827272E+001	-1.1742158E-001	-1.1723439E-001	2.499912830706353E-004	2.000000000000000E+000	3.9939448E-007	54	2.687599932105513E+000	-2.9307577E-008
2	1	0	1	1	2.037669948524126E+001	-1.0542136E-001	-1.0522051E-001	2.489780128559251E-004	2.000000000000000E+000	4.2932811E-007	54	2.807599929074058E+000	-2.6197593E-008
2	1	0	1	1	2.049669948220981E+001	-9.3421131E-002	-9.3239039E-002	2.533318666920713E-004	2.000000000000000E+000	4.5976051E-007	54	2.927599926042603E+000	-2.3620419E-008
2	1	0	1	1	2.061669947917835E+001	-8.1420913E-002	-8.1248261E-002	2.588695135307762E-004	2.000000000000000E+000	4.9076681E-007	54	3.047599923011148E+000	-2.1032697E-008
2	1	0	1	1	2.073669947614690E+001	-6.9420688E-002	-6.9259390E-002	2.707582420953258E-004	2.000000000000000E+000	5.2250090E-007	54	3.167599919979693E+000	-1.8752552E-008
2	1	0	1	1	2.085669947311544E+001	-5.7420451E-002	-5.7260469E-002	2.791191836976127E-004	2.000000000000000E+000	5.5508701E-007	54	3.287599916948238E+000	-1.5982495E-008
2	1	0	1	1	2.097669947008399E+001	-4.5420226E-002	-4.5252908E-002	2.829218263573447E-004	2.000000000000000E+000	5.8869057E-007	54	3.407599913916783E+000	-1.2803035E-008
2	1	0	1	1	2.109669946705253E+001	-3.3420000E-002	-3.3267695E-002	2.936516274772952E-004	2.000000000000000E+000	6.2351842E-007	54	3.527599910885328E+000	-9.7691126E-009
2	1	0	1	1	2.121669946402108E+001	-2.1419773E-002	-2.1273177E-002	3.089465009719328E-004	2.000000000000000E+000	6.5990861E-007	54	3.647599907853873E+000	-6.5722738E-009
2	1	0	1	1	2.133669946098962E+001	-9.4195474E-003	-9.3041640E-003	3.328831415709155E-004	2.000000000000000E+000	6.9837347E-007	54	3.767599904822418E+000	-3.0971994E-009
2	1	0	1	1	2.145669945795817E+001	2.5806783E-003	2.6806325E-003	3.636340840350149E-004	2.000000000000000E+000	7.3972421E-007	54	3.887599901790963E+000	9.7476938E-010
2	1	0	1	1	2.157669945492671E+001	1.4580900E-002	1.4677142E-002	3.991440176219927E-004	2.000000000000000E+000	7.8516473E-007	54	4.007599898759509E+000	5.8582934E-009
2	1	0	1	1	2.169669945189526E+001	2.6581122E-002	2.6615821E-002	4.566052266553652E-004	2.000000000000000E+000	8.3647728E-007	54	4.127599895728054E+000	1.2152923E-008
2	1	0	1	1	2.181669944886380E+001	3.8581345E-002	3.8513213E-002	5.405132763460479E-004	2.000000000000000E+000	8.9626940E-007	54	4.247599892696599E+000	2.0816904E-008
2	1	0	1	1	2.193669944583235E+001	5.0581567E-002	5.0386842E-002	6.635244390153024E-004	2.000000000000000E+000	9.6818337E-007	54	4.367599889665144E+000	3.3432901E-008
2	1	0	1	1	2.205669944280089E+001	6.2581778E-002	6.2213369E-002	8.342258254485785E-004	2.000000000000000E+000	1.0571988E-006	54	4.487599886633689E+000	5.1899999E-008
2	1	0	1	1	2.219169943939050E+001	7.6082036E-002	7.6554440E-002	1.272446247875153E-003	2.000000000000000E+000	1.1875987E-006	54	4.622599883223302E+000	9.7411409E-008
2	1	0	1	1	2.232669943598012E+001	8.9582279E-002	8.9998305E-002	3.577278093910966E-003	2.000000000000000E+000	1.4957147E-006	53	4.757599879812915E+000	3.2194896E-007
2	1	0	1	1	2.244669943294866E+001	1.0158250E-001	1.0167787E-001	4.538772680422468E-003	2.000000000000000E+000	2.0137754E-006	53	4.877599876781460E+000	4.6149276E-007
2	1	0	1	1	2.256669942991721E+001	1.1358273E-001	1.1375887E-001	4.391354110339321E-003	2.000000000000000E+000	2.5495749E-006	53	4.997599873750005E+000	4.9955548E-007
2	1	0	1	1	2.268669942688575E+001	1.2558293E-001	1.2575512E-001	4.298339562450102E-003	2.000000000000000E+000	3.0708766E-006	53	5.117599870718550E+000	5.4053817E-007
2	1	0	1	1	2.280669942385430E+001	1.3758317E-001	1.3780223E-001	4.199898874108134E-003	2.000000000000000E+000	3.5803791E-006	53	5.237599867687095E+000	5.7875542E-007
2	1	0	1	1	2.292669942082284E+001	1.4958338E-001	1.4978608E-001	4.091161328529866E-003	2.000000000000000E+000	4.0775612E-006	53	5.357599864655640E+000	6.1279906E-007
2	1	0	1	1	2.304669941779139E+001	1.6158362E-001	1.6182290E-001	3.925935081536824E-003	2.000000000000000E+000	4.5609404E-006	53	5.477599861624185E+000	6.3530621E-007
2	1	0	1	1	2.316669941475993E+001	1.7358384E-001	1.7417875E-001	2.358936003672532E-003	2.000000000000000E+000	4.9533087E-006	53	5.597599858592730E+000	4.1087651E-007
2	1	0	1	1	2.328669941172848E+001	1.8558405E-001	1.8632570E-001	9.112780237600163E-004	2.000000000000000E+000	5.1550437E-006	53	5.717599855561275E+000	1.6979452E-007
2	1	0	1	1	2.340669940869702E+001	1.9758429E-001	1.9811668E-001	5.259445620634778E-004	2.000000000000000E+000	5.2331729E-006	53	5.837599852529820E+000	1.0419839E-007
2	1	0	1	1	2.355669940490770E+001	2.1258456E-001	2.1201001E-001	4.160194856694943E-004	2.000000000000000E+000	5.3026752E-006	54	5.987599848740501E+000	8.8200295E-008
2	1	0	1	1	2.367669940187625E+001	2.2458477E-001	2.2452629E-001	3.942166419876802E-004	2.000000000000000E+000	5.3516483E-006	54	6.107599845709046E+000	8.8511996E-008
2	1	0	1	1	2.379669939884479E+001	2.3658499E-001	2.3673813E-001	3.665079250269000E-004	2.000000000000000E+000	5.3972785E-006	54	6.227599842677591E+000	8.6766399E-008
2	1	0	1	1	2.391669939581334E+001	2.4858519E-001	2.4880435E-001	3.487675099163217E-004	2.000000000000000E+000	5.4403481E-006	54	6.347599839646136E+000	8.6774875E-008
2	1	0	1	1	2.403669939278188E+001	2.6058543E-001	2.6082146E-001	3.379248118375003E-004	2.000000000000000E+000	5.4817024E-006	54	6.467599836614681E+000	8.8138044E-008
2	1	0	1	1	2.415669938975043E+001	2.7258563E-001	2.7283058E-001	3.336273418139881E-004	2.000000000000000E+000	5.5218134E-006	54	6.587599833583226E+000	9.1023743E-008
2	1	0	1	1	2.427669938671897E+001	2.8458586E-001	2.8483823E-001	3.250562571753608E-004	2.000000000000000E+000	5.5609535E-006	54	6.707599830551771E+000	9.2588451E-008
2	1	0	1	1	2.439669938368752E+001	2.9658610E-001	2.9683730E-001	3.156702038189050E-004	2.000000000000000E+000	5.5993414E-006	54	6.827599827520316E+000	9.3702688E-008
2	1	0	1	1	2.451669938065606E+001	3.0858636E-001	3.0884901E-001	3.104437897718526E-004	2.000000000000000E+000	5.6371764E-006	54	6.947599824488861E+000	9.5880253E-008
2	1	0	1	1	2.463669937762461E+001	3.2058653E-001	3.2082409E-001	3.070718338745882E-004	2.000000000000000E+000	5.6744284E-006	54	7.067599821457407E+000	9.8516040E-008
2	1	0	1	1	2.475669937459315E+001	3.3258677E-001	3.3280912E-001	3.104714899751829E-004	2.000000000000000E+000	5.7113507E-006	54	7.187599818425952E+000	1.0332774E-007
2	1	0	1	1	2.487669937156170E+001	3.4458697E-001	3.4480292E-001	3.056918116093911E-004	2.000000000000000E+000	5.7479328E-006	54	7.307599815394497E+000	1.0540343E-007
2	1	0	1	1	2.499669936853024E+001	3.5658720E-001	3.5679898E-001	2.999634322419380E-004	2.000000000000000E+000	5.7843013E-006	54	7.427599812363042E+000	1.0702664E-007
2	1	0	1	1	2.511669936549879E+001	3.6858743E-001	3.6882752E-001	2.985422881623819E-004	2.000000000000000E+000	5.8205583E-006	54	7.547599809331587E+000	1.1011061E-007
2	1	0	1	1	2.523669936246733E+001	3.8058764E-001	3.8080794E-001	2.996001964536699E-004	2.000000000000000E+000	5.8566593E-006	54	7.667599806300132E+000	1.1409013E-007
2	1	0	1	1	2.535679935943335E+001	3.9258793E-001	3.9281017E-001	3.052843436741823E-004	2.000000000000000E+000	5.8928194E-006	54	7.787699803266150E+000	1.1991879E-007
2	0	0	1	1	2.546379935673031E+001	3.9673799E-001	3.9780819E-001	-2.117435302554066E-005	2.000000000000000E+000	5.9180320E-006	54	0.000000000000000E+000	-8.4233314E-009
2	0	0	1	1	2.558389935369632E+001	3.8473770E-001	3.8552943E-001	-1.035163491354999E-004	2.000000000000000E+000	5.9084250E-006	54	1.200999969660188E-001	-3.9908599E-008
2	0	0	1	1	2.570389935066487E+001	3.7273750E-001	3.7329850E-001	-1.211527039055959E-004	2.000000000000000E+000	5.8950636E-006	54	2.400999939345638E-001	-4.5226123E-008
2	0	0	1	1	2.582389934763341E+001	3.6073726E-001	3.6115900E-001	-1.276601224088586E-004	2.000000000000000E+000	5.8799533E-006	54	3.600999909031088E-001	-4.6105601E-008
2	0	0	1	1	2.594389934460196E+001	3.4873706E-001	3.4911495E-001	-1.385309588858047E-004	2.000000000000000E+000	5.8636078E-006	54	4.800999878716539E-001	-4.8363230E-008
2	0	0	1	1	2.606389934157050E+001	3.3673683E-001	3.3712789E-001	-1.502472321802718E-004	2.000000000000000E+000	5.8462738E-006	54	6.000999848401989E-001	-5.0652535E-008
2	0	0	1	1	2.618389933853905E+001	3.2473662E-001	3.2510981E-001	-1.569170865966792E-004	2.000000000000000E+000	5.8281053E-006	54	7.200999818087439E-001	-5.1015284E-008
2	0	0	1	1	2.630389933550759E+001	3.1273639E-001	3.1308663E-001	-1.605325854578273E-004	2.000000000000000E+000	5.8092978E-006	54	8.400999787772889E-001	-5.0260606E-008
2	0	0	1	1	2.642389933247614E+001	3.0073619E-001	3.0106601E-001	-1.611022077307334E-004	2.000000000000000E+000	5.7898778E-006	54	9.600999757458339E-001	-4.8502400E-008
2	0	0	1	1	2.654389932944468E+001	2.8873596E-001	2.8906628E-001	-1.658384326615105E-004	2.000000000000000E+000	5.7699463E-006	54	1.080099972714379E+000	-4.7938300E-008
2	0	0	1	1	2.666389932641323E+001	2.7673572E-001	2.7706870E-001	-1.745176584716751E-004	2.000000000000000E+000	5.7494840E-006	54	1.200099969682924E+000	-4.8353382E-008
2	0	0	1	1	2.678389932338177E+001	2.6473549E-001	2.6509643E-001	-1.789396341233316E-004	2.000000000000000E+000	5.7285361E-006	54	1.320099966651469E+000	-4.7436256E-008
2	0	0	1	1	2.690389932035032E+001	2.5273529E-001	2.5305822E-001	-1.817299949172359E-004	2.000000000000000E+000	5.7071456E-006	54	1.440099963620014E+000	-4.5988269E-008
2	0	0	1	1	2.702389931731886E+001	2.4073507E-001	2.4105091E-001	-1.808552060118052E-004	2.000000000000000E+000	5.6853287E-006	54	1.560099960588559E+000	-4.3595314E-008
2	0	0	1	1	2.714389931428741E+001	2.2873484E-001	2.2906141E-001	-1.852790702489826E-004	2.000000000000000E+000	5.6630615E-006	54	1.680099957557104E+000	-4.2440284E-008
2	0	0	1	1	2.726389931125595E+001	2.1673462E-001	2.1706863E-001	-1.929625593205574E-004	2.000000000000000E+000	5.6403328E-006	54	1.800099954525649E+000	-4.1886118E-008
2	0	0	1	1	2.738389930822450E+001	2.0473440E-001	2.0504744E-001	-1.974419763690130E-004	2.000000000000000E+000	5.6171452E-006	54	1.920099951494194E+000	-4.0484974E-008
2	0	0	1	1	2.750389930519304E+001	1.9273418E-001	1.9303955E-001	-2.012789182092843E-004	2.000000000000000E+000	5.5935038E-006	54	2.040099948462739E+000	-3.8854793E-008
2	0	0	1	1	2.762389930216159E+001	1.8073396E-001	1.8104596E-001	-2.016973496838741E-004	2.000000000000000E+000	5.5693431E-006	54	2.160099945431284E+000	-3.6516493E-008
2	0	0	1	1	2.774389929913013E+001	1.6873372E-001	1.6903889E-001	-2.046537506109180E-004	2.000000000000000E+000	5.5445967E-006	54	2.280099942399829E+000	-3.4594443E-008
2	0	0	1	1	2.786389929609868E+001	1.5673353E-001	1.5708733E-001	-2.148562304989318E-004	2.000000000000000E+000	5.5192741E-006	54	2.400099939368374E+000	-3.3751192E-008
2	0	0	1	1	2.798389929306722E+001	1.4473331E-001	1.4506258E-001	-2.220068350212651E-004	2.000000000000000E+000	5.4932957E-006	54	2.520099936336919E+000	-3.2204884E-008
2	0	0	1	1	2.810389929003577E+001	1.3273306E-001	1.3307728E-001	-2.275801338941087E-004	2.000000000000000E+000	5.4666225E-006	54	2.640099933305464E+000	-3.0285744E-008
2	0	0	1	1	2.822389928700431E+001	1.2073287E-001	1.2104132E-001	-2.298827797210879E-004	2.000000000000000E+000	5.4392181E-006	54	2.760099930274009E+000	-2.7825315E-008
2	0	0	1	1	2.834389928397286E+001	1.0873263E-001	1.0906217E-001	-2.340967623003163E-004	2.000000000000000E+000	5.4110665E-006	54	2.880099927242554E+000	-2.5531099E-008
2	0	0	1	1	2.846389928094140E+001	9.6732415E-002	9.7084768E-002	-2.451797447100067E-004	2.000000000000000E+000	5.3821263E-006	54	3.000099924211099E+000	-2.3803219E-008
2	0	0	1	1	2.858389927790995E+001	8.4732197E-002	8.5097656E-002	-2.536847191500465E-004	2.000000000000000E+000	5.3524045E-006	54	3.120099921179644E+000	-2.1587974E-008
2	0	0	1	1	2.870389927487849E+001	7.2731972E-002	7.3095404E-002	-2.593363751657307E-004	2.000000000000000E+000	5.3218805E-006	54	3.240099918148189E+000	-1.8956298E-008
2	0	0	1	1	2.882389927184704E+001	6.0731750E-002	6.1073150E-002	-2.636165003665422E-004	2.000000000000000E+000	5.2905443E-006	54	3.360099915116734E+000	-1.6099889E-008
2	0	0	1	1	2.894389926881558E+001	4.8731532E-002	4.9069662E-002	-2.683303996466584E-004	2.000000000000000E+000	5.2583337E-006	54	3.480099912085279E+000	-1.3166882E-008
2	0	0	1	1	2.906389926578413E+001	3.6731306E-002	3.7087195E-002	-2.816673932052849E-004	2.000000000000000E+000	5.2251521E-006	54	3.600099909053824E+000	-1.0446254E-008
2	0	0	1	1	2.918389926275268E+001	2.4731087E-002	2.5097005E-002	-2.928092231152951E-004	2.000000000000000E+000	5.1908983E-006	54	3.720099906022369E+000	-7.3486346E-009
2	0	0	1	1	2.930389925972122E+001	1.2730866E-002	1.3104486E-002	-3.034630296111646E-004	2.000000000000000E+000	5.1554312E-006	54	3.840099902990914E+000	-3.9767269E-009
2	0	0	1	1	2.942389925668977E+001	7.3064421E-004	1.0976759E-003	-3.135370746290196E-004	2.000000000000000E+000	5.1185452E-006	54	3.960099899959459E+000	-3.4416209E-010
2	0	0	1	1	2.954389925365831E+001	-1.1269583E-002	-1.0894931E-002	-3.293027223455047E-004	2.000000000000000E+000	5.0797453E-006	54	4.080099896928004E+000	3.5877303E-009
2	0	0	1	1	2.966389925062686E+001	-2.3269808E-002	-2.2843754E-002	-3.704768091566894E-004	2.000000000000000E+000	5.0378217E-006	54	4.200099893896549E+000	8.4630809E-009
2	0	0	1	1	2.978389924759540E+001	-3.5270039E-002	-3.4629818E-002	-4.907967319883501E-004	2.000000000000000E+000	4.9876348E-006	54	4.320099890865094E+000	1.6996202E-008
2	0	0	1	1	2.990389924456395E+001	-4.7270264E-002	-4.6323828E-002	-7.038510580850499E-004	2.000000000000000E+000	4.9175624E-006	54	4.440099887833640E+000	3.2605076E-008
2	0	0	1	1	3.005389924077463E+001	-6.2270541E-002	-6.2897317E-002	-1.612045772993079E-003	2.000000000000000E+000	4.7576523E-006	53	4.590099884044321E+000	1.0139335E-007
2	0	0	1	1	3.017389923774317E+001	-7.4270777E-002	-7.4257180E-002	-2.011867994240107E-003	2.000000000000000E+000	4.5364059E-006	53	4.710099881012866E+000	1.4939565E-007
2	0	0	1	1	3.029389923471172E+001	-8.6271010E-002	-8.6045153E-002	-2.139768318912774E-003	2.000000000000000E+000	4.2850384E-006	53	4.830099877981411E+000	1.8411669E-007
2	0	0	1	1	3.041389923168026E+001	-9.8271228E-002	-9.7989328E-002	-2.112015885457997E-003	2.000000000000000E+000	4.0281916E-006	53	4.950099874949956E+000	2.0695502E-007
2	0	0	1	1	3.053389922864881E+001	-1.1027145E-001	-1.0998550E-001	-2.019526832159682E-003	2.000000000000000E+000	3.7799946E-006	53	5.070099871918501E+000	2.2211867E-007
2	0	0	1	1	3.065389922561735E+001	-1.2227169E-001	-1.2198485E-001	-1.892005363733129E-003	2.000000000000000E+000	3.5450362E-006	53	5.190099868887046E+000	2.3079599E-007
2	0	0	1	1	3.077389922258590E+001	-1.3427190E-001	-1.3399364E-001	-1.715547148765123E-003	2.000000000000000E+000	3.3278502E-006	53	5.310099865855591E+000	2.2987241E-007
2	0	0	1	1	3.089399921955192E+001	-1.4627215E-001	-1.4599006E-001	-1.478773574821058E-003	2.000000000000000E+000	3.1351976E-006	53	5.430199862821610E+000	2.1588625E-007
2	0	0	1	1	3.101399921652046E+001	-1.5827237E-001	-1.5802842E-001	-1.231178690969413E-003	2.000000000000000E+000	2.9730529E-006	53	5.550199859790155E+000	1.9456122E-007
2	0	0	1	1	3.113399921348901E+001	-1.7027260E-001	-1.7002043E-001	-1.053419996320703E-003	2.000000000000000E+000	2.8376003E-006	53	5.670199856758700E+000	1.7910293E-007
2	0	0	1	1	3.125399921045755E+001	-1.8227284E-001	-1.8200678E-001	-9.565684977649799E-004	2.000000000000000E+000	2.7179096E-006	53	5.790199853727245E+000	1.7410194E-007
2	0	0	1	1	3.137399920742610E+001	-1.9427304E-001	-1.9397505E-001	-9.061953280913443E-004	2.000000000000000E+000	2.6066639E-006	53	5.910199850695790E+000	1.7577928E-007
2	0	0	1	1	3.149399920439464E+001	-2.0627329E-001	-2.0598660E-001	-8.599172368597176E-004	2.000000000000000E+000	2.5003096E-006	53	6.030199847664335E+000	1.7713143E-007
2	0	0	1	1	3.161399920136319E+001	-2.1827349E-001	-2.1796164E-001	-8.419752866860673E-004	2.000000000000000E+000	2.3979849E-006	53	6.150199844632880E+000	1.8351831E-007
2	0	0	1	1	3.173399919833173E+001	-2.3027375E-001	-2.2997041E-001	-8.212842612093374E-004	2.000000000000000E+000	2.2984159E-006	53	6.270199841601425E+000	1.8887108E-007
2	0	0	1	1	3.185399919530028E+001	-2.4227396E-001	-2.4195677E-001	-7.994144581495903E-004	2.000000000000000E+000	2.2012455E-006	53	6.390199838569970E+000	1.9342374E-007
2	0	0	1	1	3.197399919226882E+001	-2.5427422E-001	-2.5394627E-001	-7.767936172058381E-004	2.000000000000000E+000	2.1067324E-006	53	6.510199835538515E+000	1.9726384E-007
2	0	0	1	1	3.209399918923737E+001	-2.6627442E-001	-2.6596111E-001	-7.503148170516470E-004	2.000000000000000E+000	2.0145392E-006	53	6.630199832507060E+000	1.9955456E-007
2	0	0	1	1	3.221399918620591E+001	-2.7827466E-001	-2.7794790E-001	-7.328328859082171E-004	2.000000000000000E+000	1.9248914E-006	53	6.750199829475605E+000	2.0368937E-007
2	0	0	1	1	3.233399918317446E+001	-2.9027489E-001	-2.8994501E-001	-7.204089268539439E-004	2.000000000000000E+000	1.8376134E-006	53	6.870199826444150E+000	2.0887897E-007
2	0	0	1	1	3.245399918014300E+001	-3.0227512E-001	-3.0192849E-001	-6.931014153534233E-004	2.000000000000000E+000	1.7530999E-006	53	6.990199823412695E+000	2.0926706E-007
2	0	0	1	1	3.257399917711155E+001	-3.1427532E-001	-3.1396851E-001	-6.715286733031609E-004	2.000000000000000E+000	1.6710899E-006	53	7.110199820381240E+000	2.1083886E-007
2	0	0	1	1	3.269399917408009E+001	-3.2627556E-001	-3.2595423E-001	-6.436703068753869E-004	2.000000000000000E+000	1.5916584E-006	53	7.230199817349785E+000	2.0980706E-007
2	0	0	1	1	3.281399917104864E+001	-3.3827576E-001	-3.3795938E-001	-6.265458632593735E-004	2.000000000000000E+000	1.5148813E-006	53	7.350199814318330E+000	2.1174705E-007
2	0	0	1	1	3.293399916801718E+001	-3.5027602E-001	-3.4994456E-001	-6.057284258014803E-004	2.000000000000000E+000	1.4409296E-006	53	7.470199811286875E+000	2.1197137E-007
2	0	0	1	1	3.305399916498573E+001	-3.6227623E-001	-3.6196938E-001	-5.859834729810935E-004	2.000000000000000E+000	1.3694672E-006	53	7.590199808255420E+000	2.1210808E-007
2	0	0	1	1	3.317399916195427E+001	-3.7427643E-001	-3.7397164E-001	-5.608333307339872E-004	2.000000000000000E+000	1.3008919E-006	53	7.710199805223965E+000	2.0973576E-007
2	0	0	1	1	3.329399915892282E+001	-3.8627669E-001	-3.8597912E-001	-5.302112014543441E-004	2.000000000000000E+000	1.2349077E-006	53	7.830199802192510E+000	2.0465045E-007
2	0	0	1	1	3.341399915589136E+001	-3.9827693E-001	-3.9797765E-001	-5.123391969267359E-004	2.000000000000000E+000	1.1718120E-006	53	7.950199799161055E+000	2.0389955E-007
2	0	0	1	1	3.353399915285991E+001	-4.1027716E-001	-4.0996826E-001	-4.908585437884867E-004	2.000000000000000E+000	1.1115294E-006	53	8.070199796129600E+000	2.0123642E-007
2	0	0	1	1	3.365399914982845E+001	-4.2227739E-001	-4.2197409E-001	-4.731893294598940E-004	2.000000000000000E+000	1.0540554E-006	53	8.190199793098145E+000	1.9967364E-007
2	0	0	1	1	3.377399914679700E+001	-4.3427759E-001	-4.3398687E-001	-4.471283931118033E-004	2.000000000000000E+000	9.9886699E-007	53	8.310199790066690E+000	1.9404786E-007
2	0	0	1	1	3.392399914300768E+001	-4.4927794E-001	-4.4833994E-001	-4.216134595263921E-004	2.000000000000000E+000	9.3357414E-007	54	8.460199786277371E+000	1.8902615E-007
2	0	0	1	1	3.404399913997622E+001	-4.6127811E-001	-4.6073642E-001	-3.981568224069375E-004	2.000000000000000E+000	8.8409496E-007	54	8.580199783245916E+000	1.8344535E-007
2	0	0	1	1	3.416399913694477E+001	-4.7327837E-001	-4.7289363E-001	-3.836203445023939E-004	2.000000000000000E+000	8.3662235E-007	54	8.700199780214462E+000	1.8141162E-007
2	0	0	1	1	3.428399913391331E+001	-4.8527858E-001	-4.8496008E-001	-3.717396373717338E-004	2.000000000000000E+000	7.9133889E-007	54	8.820199777183007E+000	1.8027889E-007
2	0	0	1	1	3.440399913088186E+001	-4.9727878E-001	-4.9697080E-001	-3.564312413573117E-004	2.000000000000000E+000	7.4800596E-007	54	8.940199774151552E+000	1.7713592E-007
2	0	0	1	1	3.452399912785040E+001	-5.0927907E-001	-5.0902021E-001	-3.381627250343454E-004	2.000000000000000E+000	7.0668625E-007	54	9.060199771120097E+000	1.7213166E-007
2	0	0	1	1	3.464399912481895E+001	-5.2127928E-001	-5.2104014E-001	-3.182601566426128E-004	2.000000000000000E+000	6.6715864E-007	54	9.180199768088642E+000	1.6582632E-007
2	0	0	1	1	3.476399912178749E+001	-5.3327948E-001	-5.3302091E-001	-3.041703540185895E-004	2.000000000000000E+000	6.2944105E-007	54	9.300199765057187E+000	1.6212915E-007
2	0	0	1	1	3.488399911875604E+001	-5.4527974E-001	-5.4503232E-001	-2.960832476126348E-004	2.000000000000000E+000	5.9349389E-007	54	9.420199762025732E+000	1.6137494E-007
2	0	0	1	1	3.500399911572458E+001	-5.5727994E-001	-5.5700779E-001	-2.823080934061550E-004	2.000000000000000E+000	5.5922862E-007	54	9.540199758994277E+000	1.5724781E-007
2	0	0	1	1	3.512399911269313E+001	-5.6928021E-001	-5.6902456E-001	-2.713113383379087E-004	2.000000000000000E+000	5.2643884E-007	54	9.660199755962822E+000	1.5438282E-007
2	0	0	1	1	3.524399910966167E+001	-5.8128041E-001	-5.8105499E-001	-2.526411208133468E-004	2.000000000000000E+000	4.9497061E-007	54	9.780199752931367E+000	1.4679839E-007
2	0	0	1	1	3.536399910663022E+001	-5.9328061E-001	-5.9303153E-001	-2.414965013031178E-004	2.000000000000000E+000	4.6481711E-007	54	9.900199749899912E+000	1.4321503E-007
2	0	0	1	0	3.547449910383875E+001	-5.9568059E-001	-5.9544188E-001	-2.282506752808522E-004	2.000000000000000E+000	4.3857239E-007	54	1.001069974710845E+001	1.3591001E-007
2	0	0	1	0	3.559449910080730E+001	-5.8368039E-001	-5.8349502E-001	-2.082122766306261E-004	2.000000000000000E+000	4.1225843E-007	54	1.013069974407699E+001	1.2149083E-007
2	0	0	1	0	3.571449909777584E+001	-5.7168019E-001	-5.7148343E-001	-1.975523674772085E-004	2.000000000000000E+000	3.8751134E-007	54	1.025069974104554E+001	1.1289791E-007
2	0	0	1	0	3.583449909474439E+001	-5.5967993E-001	-5.5948520E-001	-1.928148693922514E-004	2.000000000000000E+000	3.6409492E-007	54	1.037069973801408E+001	1.0787706E-007
2	0	0	1	0	3.595449909171293E+001	-5.4767978E-001	-5.4747593E-001	-1.820647127206225E-004	2.000000000000000E+000	3.4197006E-007	54	1.049069973498263E+001	9.9676051E-008
2	0	0	1	0	3.607449908868148E+001	-5.3567946E-001	-5.3548992E-001	-1.700879517888215E-004	2.000000000000000E+000	3.2116071E-007	54	1.061069973195117E+001	9.1080381E-008
2	0	0	1	0	3.619449908565002E+001	-5.2367932E-001	-5.2351701E-001	-1.534677235732170E-004	2.000000000000000E+000	3.0162371E-007	54	1.073069972891972E+001	8.0342964E-008
2	0	0	1	0	3.631449908261857E+001	-5.1167905E-001	-5.1148587E-001	-1.427372039858175E-004	2.000000000000000E+000	2.8341242E-007	54	1.085069972588826E+001	7.3008067E-008
2	0	0	1	0	3.643449907958711E+001	-4.9967879E-001	-4.9948412E-001	-1.376760859977330E-004	2.000000000000000E+000	2.6653780E-007	54	1.097069972285681E+001	6.8767022E-008
2	0	0	1	0	3.655449907655566E+001	-4.8767856E-001	-4.8748621E-001	-1.261307481162593E-004	2.000000000000000E+000	2.5104913E-007	54	1.109069971982535E+001	6.1487000E-008
2	0	0	1	0	3.667449907352420E+001	-4.7567835E-001	-4.7550401E-001	-1.137811038100390E-004	2.000000000000000E+000	2.3694456E-007	54	1.121069971679390E+001	5.4103371E-008
2	0	0	1	0	3.679449907049275E+001	-4.6367812E-001	-4.6352533E-001	-9.473569501556483E-005	2.000000000000000E+000	2.2432820E-007	54	1.133069971376244E+001	4.3912394E-008
2	0	0	1	0	3.691449906746129E+001	-4.5167789E-001	-4.5153105E-001	-8.061053196560444E-005	2.000000000000000E+000	2.1334009E-007	54	1.145069971073099E+001	3.6398159E-008
2	0	0	1	0	3.703449906442984E+001	-4.3967769E-001	-4.3950018E-001	-7.330931989797456E-005	2.000000000000000E+000	2.0402041E-007	54	1.157069970769953E+001	3.2219461E-008
2	0	0	1	0	3.715449906139838E+001	-4.2767745E-001	-4.2750940E-001	-5.799649861592605E-005	2.000000000000000E+000	1.9646011E-007	54	1.169069970466808E+001	2.4794048E-008
2	0	0	1	0	3.730449905760906E+001	-4.1267717E-001	-4.1170424E-001	-3.391060306110762E-005	2.000000000000000E+000	1.8978356E-007	55	1.184069970087876E+001	1.3961139E-008
2	0	0	1	0	3.742449905457761E+001	-4.0067691E-001	-4.0042704E-001	-1.849498715353218E-005	2.000000000000000E+000	1.8679340E-007	55	1.196069969784730E+001	7.4058932E-009
2	1	0	1	0	3.754449905154615E+001	-3.8867673E-001	-3.8891721E-001	2.941112431853945E-006	2.000000000000000E+000	1.8596148E-007	55	1.499999962106813E-002	-1.1438492E-009
2	1	0	1	0	3.766449904851470E+001	-3.7667647E-001	-3.7715068E-001	2.623188273747953E-005	2.000000000000000E+000	1.8748166E-007	55	1.349999965896131E-001	-9.8933723E-009
2	1	0	1	0	3.778449904548324E+001	-3.6467627E-001	-3.6516491E-001	4.538280556687401E-005	2.000000000000000E+000	1.9154329E-007	55	2.549999935581582E-001	-1.6572208E-008
2	1	0	1	0	3.790449904245179E+001	-3.5267606E-001	-3.5321835E-001	6.523717287373778E-005	2.000000000000000E+000	1.9824257E-007	55	3.749999905267032E-001	-2.3042967E-008
2	1	0	1	0	3.802449903942033E+001	-3.4067580E-001	-3.4128386E-001	8.839511650896134E-005	2.000000000000000E+000	2.0766812E-007	55	4.949999874952482E-001	-3.0167826E-008
2	1	0	1	0	3.817449903563102E+001	-3.2567552E-001	-3.2413930E-001	1.266452442730107E-004	2.000000000000000E+000	2.2378487E-007	54	6.449999837059295E-001	-4.1050701E-008
2	1	0	1	0	3.829449903259956E+001	-3.1367528E-001	-3.1293482E-001	1.472638641619446E-004	2.000000000000000E+000	2.4013335E-007	54	7.649999806744745E-001	-4.6083990E-008
2	1	0	1	0	3.841449902956811E+001	-3.0167508E-001	-3.0126855E-001	1.707286175820113E-004	2.000000000000000E+000	2.5879783E-007	54	8.849999776430195E-001	-5.1435162E-008
2	1	0	1	0	3.853449902653665E+001	-2.8967482E-001	-2.8941137E-001	1.840754868122415E-004	2.000000000000000E+000	2.7987363E-007	54	1.004999974611565E+000	-5.3273538E-008
2	1	0	1	0	3.865449902350520E+001	-2.7767462E-001	-2.7746561E-001	1.991784220896755E-004	2.000000000000000E+000	3.0315715E-007	54	1.124999971580110E+000	-5.5265161E-008
2	1	0	1	0	3.877449902047374E+001	-2.6567441E-001	-2.6550341E-001	2.131033058241829E-004	2.000000000000000E+000	3.2827208E-007	54	1.244999968548655E+000	-5.6579655E-008
2	1	0	1	0	3.889449901744229E+001	-2.5367415E-001	-2.5350165E-001	2.271178333923835E-004	2.000000000000000E+000	3.5481233E-007	54	1.364999965517200E+000	-5.7574745E-008
2	1	0	1	0	3.901449901441083E+001	-2.4167393E-001	-2.4152988E-001	2.376217357258925E-004	2.000000000000000E+000	3.8233964E-007	54	1.484999962485745E+000	-5.7392750E-008
2	1	0	1	0	3.913449901137938E+001	-2.2967371E-001	-2.2948647E-001	2.347965305489188E-004	2.000000000000000E+000	4.1040207E-007	54	1.604999959454290E+000	-5.3882626E-008
2	1	0	1	0	3.925449900834792E+001	-2.1767350E-001	-2.1747407E-001	2.328036119167891E-004	2.000000000000000E+000	4.3868027E-007	54	1.724999956422835E+000	-5.0628749E-008
2	1	0	1	0	3.937449900531647E+001	-2.0567325E-001	-2.0546259E-001	2.331778260376595E-004	2.000000000000000E+000	4.6696346E-007	54	1.844999953391380E+000	-4.7909321E-008
2	1	0	1	0	3.949449900228501E+001	-1.9367303E-001	-1.9346482E-001	2.347857505652511E-004	2.000000000000000E+000	4.9516251E-007	54	1.964999950359925E+000	-4.5422780E-008
2	1	0	1	0	3.961449899925356E+001	-1.8167280E-001	-1.8148470E-001	2.387975921267398E-004	2.000000000000000E+000	5.2327522E-007	54	2.084999947328470E+000	-4.3338108E-008
2	1	0	1	0	3.973449899622210E+001	-1.6967258E-001	-1.6944540E-001	2.340215343036543E-004	2.000000000000000E+000	5.5136167E-007	54	2.204999944297015E+000	-3.9653873E-008
2	1	0	1	0	3.985449899319065E+001	-1.5767236E-001	-1.5746011E-001	2.320856953860048E-004	2.000000000000000E+000	5.7947830E-007	54	2.324999941265560E+000	-3.6544240E-008
2	1	0	1	0	3.997449899015919E+001	-1.4567213E-001	-1.4546368E-001	2.339684341524408E-004	2.000000000000000E+000	6.0775898E-007	54	2.444999938234105E+000	-3.4033910E-008
2	1	0	1	0	4.008709898731468E+001	-1.3442191E-001	-1.3420984E-001	2.361583378150617E-004	3.000000000000000E+000	6.3452273E-007	54	2.557599935389590E+000	-3.1694775E-008
2	1	0	1	0	4.020709898428322E+001	-1.2242170E-001	-1.2222046E-001	2.397256641252777E-004	3.000000000000000E+000	6.6336969E-007	54	2.677599932358135E+000	-2.9299381E-008
2	1	0	1	0	4.032709898125177E+001	-1.1042146E-001	-1.1024562E-001	2.437274088151755E-004	3.000000000000000E+000	6.9260705E-007	54	2.797599929326680E+000	-2.6869881E-008
2	1	0	1	0	4.044709897822031E+001	-9.8421231E-002	-9.8253191E-002	2.531939767817207E-004	3.000000000000000E+000	7.2226385E-007	54	2.917599926295225E+000	-2.4877115E-008
2	1	0	1	0	4.056709897518886E+001	-8.6421005E-002	-8.6221956E-002	2.559307392907017E-004	3.000000000000000E+000	7.5242195E-007	54	3.037599923263770E+000	-2.2066850E-008
2	1	0	1	0	4.068709897215740E+001	-7.4420780E-002	-7.4240401E-002	2.565485525565232E-004	3.000000000000000E+000	7.8314787E-007	54	3.157599920232315E+000	-1.9046267E-008
2	1	0	1	0	4.080709896912595E+001	-6.2420547E-002	-6.2224943E-002	2.628238967165844E-004	3.000000000000000E+000	8.1457267E-007	54	3.277599917200860E+000	-1.6354202E-008
2	1	0	1	0	4.092709896609449E+001	-5.0420318E-002	-5.0232496E-002	2.718265753608894E-004	3.000000000000000E+000	8.4686360E-007	54	3.397599914169405E+000	-1.3654527E-008
2	1	0	1	0	4.104709896306304E+001	-3.8420096E-002	-3.8264897E-002	2.859652668121275E-004	3.000000000000000E+000	8.8021767E-007	54	3.517599911137950E+000	-1.0942431E-008
2	1	0	1	0	4.116709896003158E+001	-2.6419865E-002	-2.6277108E-002	2.982560845364046E-004	3.000000000000000E+000	9.1486987E-007	54	3.637599908106495E+000	-7.8373077E-009
2	1	0	1	0	4.128709895700013E+001	-1.4419641E-002	-1.4263648E-002	3.093123444396838E-004	3.000000000000000E+000	9.5123386E-007	54	3.757599905075040E+000	-4.4119224E-009
2	1	0	1	0	4.140709895396867E+001	-2.4194149E-003	-2.2916456E-003	3.318006442500710E-004	3.000000000000000E+000	9.8990802E-007	54	3.877599902043585E+000	-7.6036949E-010
2	1	0	1	0	4.152709895093722E+001	9.5808068E-003	9.6809352E-003	3.647000020929126E-004	3.000000000000000E+000	1.0318695E-006	54	3.997599899012130E+000	3.5306371E-009
2	1	0	1	0	4.164709894790576E+001	2.1581028E-002	2.1625184E-002	4.160685310362977E-004	3.000000000000000E+000	1.0785120E-006	54	4.117599895980675E+000	8.9975583E-009
2	1	0	1	0	4.176709894487431E+001	3.3581249E-002	3.3560377E-002	4.839204656560542E-004	3.000000000000000E+000	1.1319440E-006	54	4.237599892949220E+000	1.6240554E-008
2	1	0	1	0	4.188709894184285E+001	4.5581467E-002	4.5477789E-002	5.751259510243089E-004	3.000000000000000E+000	1.1951076E-006	54	4.357599889917765E+000	2.6155456E-008
2	1	0	1	0	4.200709893881140E+001	5.7581697E-002	5.7348765E-002	7.117188772652943E-004	3.000000000000000E+000	1.2721416E-006	54	4.477599886886310E+000	4.0816200E-008
2	1	0	1	0	4.212709893577994E+001	6.9581911E-002	6.9152273E-002	9.085808859333145E-004	3.000000000000000E+000	1.3688343E-006	54	4.597599883854855E+000	6.2830431E-008
2	1	0	1	0	4.227709893199062E+001	8.4582187E-002	8.5629880E-002	2.372240276402045E-003	3.000000000000000E+000	1.5685318E-006	53	4.747599880065536E+000	2.0313465E-007
2	1	0	1	0	4.239709892895917E+001	9.6582405E-002	9.6676514E-002	4.504556251365869E-003	3.000000000000000E+000	2.0010280E-006	53	4.867599877034081E+000	4.3548479E-007
2	1	0	1	0	4.251709892592771E+001	1.0858262E-001	1.0876407E-001	4.270665170106061E-003	3.000000000000000E+000	2.5298139E-006	53	4.987599874002626E+000	4.6449492E-007
2	1	0	1	0	4.263709892289626E+001	1.2058286E-001	1.2077387E-001	4.099224534476656E-003	3.000000000000000E+000	3.0310389E-006	53	5.107599870971171E+000	4.9507918E-007
2	1	0	1	0	4.275709891986480E+001	1.3258308E-001	1.3280044E-001	3.969665139186929E-003	3.000000000000000E+000	3.5152907E-006	53	5.227599867939716E+000	5.2717331E-007
2	1	0	1	0	4.287709891683335E+001	1.4458331E-001	1.4477460E-001	3.829115029633540E-003	3.000000000000000E+000	3.9835832E-006	53	5.347599864908261E+000	5.5435862E-007
2	1	0	1	0	4.299709891380189E+001	1.5658350E-001	1.5681399E-001	3.660776993298073E-003	3.000000000000000E+000	4.4346366E-006	53	5.467599861876806E+000	5.7406106E-007
2	1	0	1	0	4.311709891077044E+001	1.6858374E-001	1.6917464E-001	2.055729288298135E-003	3.000000000000000E+000	4.7913959E-006	53	5.587599858845351E+000	3.4777727E-007
2	1	0	1	0	4.323709890773898E+001	1.8058395E-001	1.8127508E-001	6.680922660368977E-004	3.000000000000000E+000	4.9424411E-006	53	5.707599855813896E+000	1.2110849E-007
2	1	0	1	0	4.335709890470753E+001	1.9258419E-001	1.9306439E-001	4.521531412127969E-004	3.000000000000000E+000	5.0063354E-006	53	5.827599852782441E+000	8.7294673E-008
2	1	0	1	0	4.350709890091821E+001	2.0758444E-001	2.0721529E-001	3.888619349442278E-004	3.000000000000000E+000	5.0683916E-006	54	5.977599848993123E+000	8.0578140E-008
2	1	0	1	0	4.362709889788675E+001	2.1958466E-001	2.1960118E-001	3.623743608169093E-004	3.000000000000000E+000	5.1137636E-006	54	6.097599845961668E+000	7.9577838E-008
2	1	0	1	0	4.374709889485530E+001	2.3158491E-001	2.3174186E-001	3.464056556753284E-004	3.000000000000000E+000	5.1562665E-006	54	6.217599842930213E+000	8.0276692E-008
2	1	0	1	0	4.386709889182384E+001	2.4358512E-001	2.4380027E-001	3.351091925196674E-004	3.000000000000000E+000	5.1968041E-006	54	6.337599839898758E+000	8.1699710E-008
2	1	0	1	0	4.398709888879239E+001	2.5558537E-001	2.5583515E-001	3.213020042850362E-004	3.000000000000000E+000	5.2359746E-006	54	6.457599836867303E+000	8.2200344E-008
2	1	0	1	0	4.410709888576093E+001	2.6758555E-001	2.6779437E-001	3.111401657930482E-004	3.000000000000000E+000	5.2740625E-006	54	6.577599833835848E+000	8.3321588E-008
2	1	0	1	0	4.422709888272948E+001	2.7958581E-001	2.7980915E-001	3.064842583912859E-004	3.000000000000000E+000	5.3114177E-006	54	6.697599830804393E+000	8.5757101E-008
2	1	0	1	0	4.434709887969802E+001	2.9158601E-001	2.9181138E-001	3.052163200387128E-004	3.000000000000000E+000	5.3481599E-006	54	6.817599827772938E+000	8.9065594E-008
2	1	0	1	0	4.446709887666657E+001	3.0358624E-001	3.0380911E-001	3.032176205865862E-004	3.000000000000000E+000	5.3843405E-006	54	6.937599824741483E+000	9.2120274E-008
2	1	0	1	0	4.458709887363511E+001	3.1558645E-001	3.1582698E-001	2.958091560423754E-004	3.000000000000000E+000	5.4200227E-006	54	7.057599821710028E+000	9.3424511E-008
2	1	0	1	0	4.470709887060366E+001	3.2758665E-001	3.2781991E-001	2.925590144523889E-004	3.000000000000000E+000	5.4554534E-006	54	7.177599818678573E+000	9.5906671E-008
2	1	0	1	0	4.482709886757220E+001	3.3958688E-001	3.3982009E-001	2.894903252507433E-004	3.000000000000000E+000	5.4905850E-006	54	7.297599815647118E+000	9.8374628E-008
2	1	0	1	0	4.494709886454075E+001	3.5158712E-001	3.5179809E-001	2.910987533541830E-004	3.000000000000000E+000	5.5254864E-006	54	7.417599812615663E+000	1.0240799E-007
2	1	0	1	0	4.506709886150929E+001	3.6358735E-001	3.6379582E-001	2.937654033762938E-004	3.000000000000000E+000	5.5603064E-006	54	7.537599809584208E+000	1.0687062E-007
2	1	0	1	0	4.518709885847784E+001	3.7558755E-001	3.7579045E-001	2.907290467631995E-004	3.000000000000000E+000	5.5951650E-006	54	7.657599806552753E+000	1.0925320E-007
2	1	0	1	0	4.530709885544638E+001	3.8758782E-001	3.8781491E-001	2.885415121859896E-004	3.000000000000000E+000	5.6300646E-006	54	7.777599803521298E+000	1.1190070E-007
2	1	0	1	0	4.542719885241240E+001	3.9958802E-001	3.9981326E-001	2.897570002796165E-004	3.000000000000000E+000	5.6649760E-006	54	7.897699800487317E+000	1.1584869E-007
2	0	0	1	0	4.553429884970683E+001	3.8973781E-001	3.9062998E-001	-9.310399171068707E-005	3.000000000000000E+000	5.6633976E-006	54	7.509999810281442E-002	-3.6369212E-008
2	0	0	1	0	4.565429884667537E+001	3.7773761E-001	3.7835875E-001	-1.198524891541947E-004	3.000000000000000E+000	5.6502240E-006	54	1.950999950713594E-001	-4.5347239E-008
2	0	0	1	0	4.577429884364392E+001	3.6573741E-001	3.6620802E-001	-1.340824878629178E-004	3.000000000000000E+000	5.6350982E-006	54	3.150999920399045E-001	-4.9102081E-008
2	0	0	1	0	4.589429884061246E+001	3.5373718E-001	3.5415015E-001	-1.430648656735125E-004	3.000000000000000E+000	5.6186905E-006	54	4.350999890084495E-001	-5.0666443E-008
2	0	0	1	0	4.601429883758101E+001	3.4173694E-001	3.4210947E-001	-1.470370140477530E-004	3.000000000000000E+000	5.6013187E-006	54	5.550999859769945E-001	-5.0302756E-008
2	0	0	1	0	4.613429883454955E+001	3.2973671E-001	3.3008274E-001	-1.499369505211230E-004	3.000000000000000E+000	5.5831597E-006	54	6.750999829455395E-001	-4.9491600E-008
2	0	0	1	0	4.625429883151810E+001	3.1773651E-001	3.1808007E-001	-1.593227187373959E-004	3.000000000000000E+000	5.5643372E-006	54	7.950999799140845E-001	-5.0677382E-008
2	0	0	1	0	4.637429882848664E+001	3.0573624E-001	3.0608559E-001	-1.667512434229805E-004	3.000000000000000E+000	5.5449304E-006	54	9.150999768826296E-001	-5.1040153E-008
2	0	0	1	0	4.649429882545519E+001	2.9373604E-001	2.9407179E-001	-1.698966965625947E-004	3.000000000000000E+000	5.5250343E-006	54	1.035099973851175E+000	-4.9961827E-008
2	0	0	1	0	4.661429882242373E+001	2.8173581E-001	2.8205904E-001	-1.718898903020441E-004	3.000000000000000E+000	5.5046366E-006	54	1.155099970819720E+000	-4.8483098E-008
2	0	0	1	0	4.673429881939228E+001	2.6973560E-001	2.7006885E-001	-1.713158022297371E-004	3.000000000000000E+000	5.4838038E-006	54	1.275099967788265E+000	-4.6267061E-008
2	0	0	1	0	4.685429881636082E+001	2.5773537E-001	2.5806841E-001	-1.786419323910038E-004	3.000000000000000E+000	5.4625525E-006	54	1.395099964756810E+000	-4.6101839E-008
2	0	0	1	0	4.697429881332937E+001	2.4573514E-001	2.4607886E-001	-1.848993211707320E-004	3.000000000000000E+000	5.4408270E-006	54	1.515099961725355E+000	-4.5499814E-008
2	0	0	1	0	4.709429881029791E+001	2.3373495E-001	2.3406915E-001	-1.876584258742816E-004	3.000000000000000E+000	5.4187185E-006	54	1.635099958693900E+000	-4.3925048E-008
2	0	0	1	0	4.721429880726646E+001	2.2173470E-001	2.2206026E-001	-1.885783856545968E-004	3.000000000000000E+000	5.3961971E-006	54	1.755099955662445E+000	-4.1875765E-008
2	0	0	1	0	4.733429880423500E+001	2.0973451E-001	2.1005128E-001	-1.894064359856636E-004	3.000000000000000E+000	5.3732329E-006	54	1.875099952630990E+000	-3.9785064E-008
2	0	0	1	0	4.745429880120355E+001	1.9773430E-001	1.9806018E-001	-1.968216794239199E-004	3.000000000000000E+000	5.3498061E-006	54	1.995099949599535E+000	-3.8982538E-008
2	0	0	1	0	4.757429879817209E+001	1.8573406E-001	1.8605819E-001	-2.034342060117360E-004	3.000000000000000E+000	5.3259091E-006	54	2.115099946568080E+000	-3.7850601E-008
2	0	0	1	0	4.769429879514064E+001	1.7373383E-001	1.7407058E-001	-2.077943538700343E-004	3.000000000000000E+000	5.3014983E-006	54	2.235099943536625E+000	-3.6170885E-008
2	0	0	1	0	4.781429879210918E+001	1.6173361E-001	1.6207939E-001	-2.098517826203015E-004	3.000000000000000E+000	5.2765727E-006	54	2.355099940505170E+000	-3.4012650E-008
2	0	0	1	0	4.793429878907773E+001	1.4973338E-001	1.5004058E-001	-2.105872457011924E-004	3.000000000000000E+000	5.2510782E-006	54	2.475099937473715E+000	-3.1596635E-008
2	0	0	1	0	4.805429878604627E+001	1.3773318E-001	1.3807589E-001	-2.195257520280275E-004	3.000000000000000E+000	5.2249711E-006	54	2.595099934442260E+000	-3.0311213E-008
2	0	0	1	0	4.817429878301482E+001	1.2573296E-001	1.2607133E-001	-2.285798419388418E-004	3.000000000000000E+000	5.1981951E-006	54	2.715099931410805E+000	-2.8817366E-008
2	0	0	1	0	4.829429877998336E+001	1.1373273E-001	1.1405945E-001	-2.344018760462203E-004	3.000000000000000E+000	5.1707111E-006	54	2.835099928379350E+000	-2.6735748E-008
2	0	0	1	0	4.841429877695191E+001	1.0173251E-001	1.0206369E-001	-2.381761810951221E-004	3.000000000000000E+000	5.1425191E-006	54	2.955099925347895E+000	-2.4309141E-008
2	0	0	1	0	4.853429877392045E+001	8.9732274E-002	9.0068519E-002	-2.396772549450757E-004	3.000000000000000E+000	5.1135917E-006	54	3.075099922316440E+000	-2.1587375E-008
2	0	0	1	0	4.865429877088900E+001	7.7732064E-002	7.8072757E-002	-2.494018642368160E-004	3.000000000000000E+000	5.0839189E-006	54	3.195099919284985E+000	-1.9471491E-008
2	0	0	1	0	4.877429876785754E+001	6.5731846E-002	6.6088550E-002	-2.596578538427614E-004	3.000000000000000E+000	5.0534604E-006	54	3.315099916253530E+000	-1.7160412E-008
2	0	0	1	0	4.889429876482609E+001	5.3731613E-002	5.4074679E-002	-2.664247393894294E-004	3.000000000000000E+000	5.0222025E-006	54	3.435099913222075E+000	-1.4406832E-008
2	0	0	1	0	4.901429876179463E+001	4.1731399E-002	4.2053491E-002	-2.718252985143559E-004	3.000000000000000E+000	4.9900882E-006	54	3.555099910190620E+000	-1.1431203E-008
2	0	0	1	0	4.913429875876318E+001	2.9731181E-002	3.0072857E-002	-2.751721068757042E-004	3.000000000000000E+000	4.9570644E-006	54	3.675099907159165E+000	-8.2752116E-009
2	0	0	1	0	4.925429875573172E+001	1.7730961E-002	1.8085402E-002	-2.873481952910283E-004	3.000000000000000E+000	4.9230221E-006	54	3.795099904127710E+000	-5.1968074E-009
2	0	0	1	0	4.937429875270027E+001	5.7307365E-003	6.0977857E-003	-3.008722273346820E-004	3.000000000000000E+000	4.8878364E-006	54	3.915099901096255E+000	-1.8346543E-009
2	0	0	1	0	4.949429874966881E+001	-6.2694871E-003	-5.9109372E-003	-3.138606725077925E-004	3.000000000000000E+000	4.8512720E-006	54	4.035099898064800E+000	1.8552108E-009
2	0	0	1	0	4.961429874663736E+001	-1.8269714E-002	-1.7897815E-002	-3.336186718679128E-004	3.000000000000000E+000	4.8127613E-006	54	4.155099895033345E+000	5.9710450E-009
2	0	0	1	0	4.973429874360590E+001	-3.0269938E-002	-2.9811658E-002	-3.873196369963607E-004	3.000000000000000E+000	4.7700792E-006	54	4.275099892001890E+000	1.1546641E-008
2	0	0	1	0	4.985429874057445E+001	-4.2270169E-002	-4.1534252E-002	-5.425085072671282E-004	3.000000000000000E+000	4.7146150E-006	54	4.395099888970435E+000	2.2532685E-008
2	0	0	1	0	4.997429873754299E+001	-5.4270394E-002	-5.2820332E-002	-9.505191993590123E-004	3.000000000000000E+000	4.6296682E-006	54	4.515099885938980E+000	5.0206740E-008
2	0	0	1	0	5.012429873375368E+001	-6.9270685E-002	-6.9502577E-002	-1.777301977535499E-003	3.000000000000000E+000	4.4215662E-006	53	4.665099882149661E+000	1.2352707E-007
2	0	0	1	0	5.024429873072222E+001	-8.1270911E-002	-8.1129864E-002	-2.007333965653023E-003	3.000000000000000E+000	4.1924259E-006	53	4.785099879118206E+000	1.6285473E-007
2	0	0	1	0	5.036429872769077E+001	-9.3271136E-002	-9.3024932E-002	-2.023207051578262E-003	3.000000000000000E+000	3.9492338E-006	53	4.905099876086751E+000	1.8820870E-007
2	0	0	1	0	5.048429872465931E+001	-1.0527135E-001	-1.0500060E-001	-1.918471240712635E-003	3.000000000000000E+000	3.7117934E-006	53	5.025099873055296E+000	2.0144063E-007
2	0	0	1	0	5.060429872162786E+001	-1.1727158E-001	-1.1699702E-001	-1.758304916521682E-003	3.000000000000000E+000	3.4900422E-006	53	5.145099870023842E+000	2.0571643E-007
2	0	0	1	0	5.072429871859640E+001	-1.2927184E-001	-1.2900351E-001	-1.554881567323671E-003	3.000000000000000E+000	3.2904550E-006	53	5.265099866992387E+000	2.0058518E-007
2	0	0	1	0	5.084439871556242E+001	-1.4127205E-001	-1.4102715E-001	-1.291646297700445E-003	3.000000000000000E+000	3.1195245E-006	53	5.385199863958405E+000	1.8215719E-007
2	0	0	1	0	5.096439871253097E+001	-1.5327229E-001	-1.5302932E-001	-1.051356898849255E-003	3.000000000000000E+000	2.9797679E-006	53	5.505199860926950E+000	1.6088843E-007
2	0	0	1	0	5.108439870949951E+001	-1.6527250E-001	-1.6501053E-001	-9.032386370790828E-004	3.000000000000000E+000	2.8629634E-006	53	5.625199857895495E+000	1.4904388E-007
2	0	0	1	0	5.120439870646806E+001	-1.7727274E-001	-1.7697577E-001	-8.389347822024065E-004	3.000000000000000E+000	2.7584588E-006	53	5.745199854864040E+000	1.4847113E-007
2	0	0	1	0	5.132439870343660E+001	-1.8927296E-001	-1.8897225E-001	-8.020201765000130E-004	3.000000000000000E+000	2.6600062E-006	53	5.865199851832585E+000	1.5155956E-007
2	0	0	1	0	5.144439870040515E+001	-2.0127316E-001	-2.0094717E-001	-7.782625717295960E-004	3.000000000000000E+000	2.5654658E-006	53	5.985199848801130E+000	1.5638966E-007
2	0	0	1	0	5.156439869737369E+001	-2.1327342E-001	-2.1295862E-001	-7.606243087407557E-004	3.000000000000000E+000	2.4732865E-006	53	6.105199845769675E+000	1.6198150E-007
2	0	0	1	0	5.168439869434224E+001	-2.2527364E-001	-2.2496139E-001	-7.335087181714215E-004	3.000000000000000E+000	2.3831469E-006	53	6.225199842738220E+000	1.6501114E-007
2	0	0	1	0	5.180439869131078E+001	-2.3727389E-001	-2.3694983E-001	-7.332155269998758E-004	3.000000000000000E+000	2.2947345E-006	53	6.345199839706765E+000	1.7373530E-007
2	0	0	1	0	5.192439868827933E+001	-2.4927412E-001	-2.4893722E-001	-7.188279059329779E-004	3.000000000000000E+000	2.2077916E-006	53	6.465199836675311E+000	1.7894303E-007
2	0	0	1	0	5.204439868524787E+001	-2.6127431E-001	-2.6095450E-001	-7.028943982525281E-004	3.000000000000000E+000	2.1226438E-006	53	6.585199833643856E+000	1.8342345E-007
2	0	0	1	0	5.216439868221642E+001	-2.7327454E-001	-2.7296534E-001	-6.866199617702891E-004	3.000000000000000E+000	2.0395562E-006	53	6.705199830612401E+000	1.8742345E-007
2	0	0	1	0	5.228439867918496E+001	-2.8527477E-001	-2.8496853E-001	-6.617130916724383E-004	3.000000000000000E+000	1.9581091E-006	53	6.825199827580946E+000	1.8856740E-007
2	0	0	1	0	5.240439867615351E+001	-2.9727501E-001	-2.9696038E-001	-6.460310768881573E-004	3.000000000000000E+000	1.8791615E-006	53	6.945199824549491E+000	1.9184564E-007
2	0	0	1	0	5.252439867312205E+001	-3.0927521E-001	-3.0896375E-001	-6.368665938122240E-004	3.000000000000000E+000	1.8023553E-006	53	7.065199821518036E+000	1.9676868E-007
2	0	0	1	0	5.264439867009060E+001	-3.2127544E-001	-3.2095781E-001	-6.133492047824384E-004	3.000000000000000E+000	1.7275712E-006	53	7.185199818486581E+000	1.9685922E-007
2	0	0	1	0	5.276439866705914E+001	-3.3327568E-001	-3.3295763E-001	-5.928202462438421E-004	3.000000000000000E+000	1.6553802E-006	53	7.305199815455126E+000	1.9738403E-007
2	0	0	1	0	5.288439866402769E+001	-3.4527594E-001	-3.4496790E-001	-5.659426834551014E-004	3.000000000000000E+000	1.5853140E-006	53	7.425199812423671E+000	1.9523206E-007
2	0	0	1	0	5.300439866099623E+001	-3.5727614E-001	-3.5697073E-001	-5.491500285188522E-004	3.000000000000000E+000	1.5178437E-006	53	7.545199809392216E+000	1.9603048E-007
2	0	0	1	0	5.312439865796478E+001	-3.6927637E-001	-3.6897728E-001	-5.315733537879005E-004	3.000000000000000E+000	1.4530276E-006	53	7.665199806360761E+000	1.9613849E-007
2	0	0	1	0	5.324439865493332E+001	-3.8127661E-001	-3.8097015E-001	-5.142868618732291E-004	3.000000000000000E+000	1.3906484E-006	53	7.785199803329306E+000	1.9592794E-007
2	0	0	1	0	5.336439865190187E+001	-3.9327681E-001	-3.9295366E-001	-4.923431604156162E-004	3.000000000000000E+000	1.3305272E-006	53	7.905199800297851E+000	1.9346805E-007
2	0	0	1	0	5.348439864887041E+001	-4.0527707E-001	-4.0497494E-001	-4.651198744495973E-004	3.000000000000000E+000	1.2727253E-006	53	8.025199797266396E+000	1.8836189E-007
2	0	0	1	0	5.360439864583896E+001	-4.1727728E-001	-4.1699165E-001	-4.477377959026599E-004	3.000000000000000E+000	1.2175071E-006	53	8.145199794234941E+000	1.8670292E-007
2	0	0	1	0	5.375439864204964E+001	-4.3227759E-001	-4.3142524E-001	-4.198655596135063E-004	3.000000000000000E+000	1.1523018E-006	54	8.295199790445622E+000	1.8114061E-007
2	0	0	1	0	5.387439863901818E+001	-4.4427779E-001	-4.4374982E-001	-4.062362236719628E-004	3.000000000000000E+000	1.1027113E-006	54	8.415199787414167E+000	1.8026725E-007
2	0	0	1	0	5.399439863598673E+001	-4.5627803E-001	-4.5590097E-001	-3.885782508322418E-004	3.000000000000000E+000	1.0552670E-006	54	8.535199784382712E+000	1.7715320E-007
2	0	0	1	0	5.411439863295527E+001	-4.6827823E-001	-4.6797147E-001	-3.703485898540748E-004	3.000000000000000E+000	1.0099753E-006	54	8.655199781351257E+000	1.7331257E-007
2	0	0	1	0	5.423439862992382E+001	-4.8027849E-001	-4.8001277E-001	-3.461077506844113E-004	3.000000000000000E+000	9.6679355E-007	54	8.775199778319802E+000	1.6613615E-007
2	0	0	1	0	5.435439862689236E+001	-4.9227872E-001	-4.9201906E-001	-3.317781883124954E-004	3.000000000000000E+000	9.2565722E-007	54	8.895199775288347E+000	1.6324120E-007
2	0	0	1	0	5.447439862386091E+001	-5.0427896E-001	-5.0401366E-001	-3.216176935852237E-004	3.000000000000000E+000	8.8648557E-007	54	9.015199772256892E+000	1.6209971E-007
2	0	0	1	0	5.459439862082945E+001	-5.1627922E-001	-5.1600337E-001	-3.063140065157979E-004	3.000000000000000E+000	8.4908777E-007	54	9.135199769225437E+000	1.5805907E-007
2	0	0	1	0	5.471439861779800E+001	-5.2827942E-001	-5.2801061E-001	-2.921266426767485E-004	3.000000000000000E+000	8.1346570E-007	54	9.255199766193982E+000	1.5424597E-007
2	0	0	1	0	5.483439861476654E+001	-5.4027963E-001	-5.4005700E-001	-2.719884166786156E-004	3.000000000000000E+000	7.7946294E-007	54	9.375199763162527E+000	1.4688925E-007
2	0	0	1	0	5.495439861173509E+001	-5.5227983E-001	-5.5202037E-001	-2.604232411985404E-004	3.000000000000000E+000	7.4704025E-007	54	9.495199760131072E+000	1.4375894E-007
2	0	0	1	0	5.507439860870363E+001	-5.6428015E-001	-5.6400931E-001	-2.552430738376179E-004	3.000000000000000E+000	7.1607633E-007	54	9.615199757099617E+000	1.4395947E-007
2	0	0	1	0	5.519439860567218E+001	-5.7628042E-001	-5.7598078E-001	-2.436152496650057E-004	3.000000000000000E+000	6.8653952E-007	54	9.735199754068162E+000	1.4031770E-007
2	0	0	1	0	5.531439860264072E+001	-5.8828056E-001	-5.8800381E-001	-2.320197737798362E-004	3.000000000000000E+000	6.5828260E-007	54	9.855199751036707E+000	1.3642851E-007
2	0	0	1	0	5.543159859968000E+001	-6.0000557E-001	-5.9972197E-001	-2.225499047199264E-004	3.000000000000000E+000	6.3191101E-007	54	9.972399748075986E+000	1.3346806E-007
