Ewe/V	<I>/mA	cycle number	time/s	
1.2613723E-001	1.477583117000875E-003	1.000000000000000E+000	5.767668854296426E+002
1.3614504E-001	1.906466286894171E-003	1.000000000000000E+000	5.768068854286321E+002
1.5362714E-001	2.115056894502493E-003	1.000000000000000E+000	5.768768854268637E+002
1.6362698E-001	2.152116288596297E-003	1.000000000000000E+000	5.769168854258533E+002
1.7362730E-001	2.175455897579072E-003	1.000000000000000E+000	5.769568854248428E+002
1.8363126E-001	2.192388050226736E-003	1.000000000000000E+000	5.769968854238323E+002
1.9362225E-001	2.207908041272074E-003	1.000000000000000E+000	5.770368854228218E+002
2.0016026E-001	2.225843956694007E-003	1.000000000000000E+000	5.770629854221625E+002
1.9641241E-001	-1.981235135436124E-003	1.000000000000000E+000	5.770784854217709E+002
1.8642320E-001	-2.073877171007578E-003	1.000000000000000E+000	5.771184854207604E+002
1.7642207E-001	-2.131961520290661E-003	1.000000000000000E+000	5.771584854197499E+002
1.6641957E-001	-2.161053085849393E-003	1.000000000000000E+000	5.771984854187394E+002
1.5642500E-001	-2.186885847215884E-003	1.000000000000000E+000	5.772384854177290E+002
1.4643177E-001	-2.205991898980899E-003	1.000000000000000E+000	5.772784854167185E+002
1.3643588E-001	-2.232580194491397E-003	1.000000000000000E+000	5.773184854157080E+002
1.2642524E-001	-2.255153835240319E-003	1.000000000000000E+000	5.773584854146975E+002
1.1642405E-001	-2.276008966952507E-003	1.000000000000000E+000	5.773984854136870E+002
1.0642387E-001	-2.289043559678277E-003	1.000000000000000E+000	5.774384854126765E+002
9.6432425E-002	-2.308645470585739E-003	1.000000000000000E+000	5.774784854116660E+002
8.6428121E-002	-2.325941604757796E-003	1.000000000000000E+000	5.775184854106556E+002
7.6428801E-002	-2.351506666511731E-003	1.000000000000000E+000	5.775584854096451E+002
6.6420205E-002	-2.366729046988571E-003	1.000000000000000E+000	5.775984854086346E+002
5.6414798E-002	-2.385040366826449E-003	1.000000000000000E+000	5.776384854076241E+002
4.6422195E-002	-2.393690724778796E-003	1.000000000000000E+000	5.776784854066136E+002
3.6420189E-002	-2.409856054058810E-003	1.000000000000000E+000	5.777184854056031E+002
2.6422622E-002	-2.433739600254877E-003	1.000000000000000E+000	5.777584854045926E+002
1.6432934E-002	-2.436269150147906E-003	1.000000000000000E+000	5.777984854035822E+002
6.4145508E-003	-2.456616818934110E-003	1.000000000000000E+000	5.778384854025717E+002
-3.5981508E-003	-2.465240876527023E-003	1.000000000000000E+000	5.778784854015612E+002
-1.3590548E-002	-2.476007590952817E-003	1.000000000000000E+000	5.779184854005507E+002
-2.3595111E-002	-2.489995834793590E-003	1.000000000000000E+000	5.779584853995402E+002
-3.3599485E-002	-2.497927916289076E-003	1.000000000000000E+000	5.779984853985297E+002
-4.3598734E-002	-2.509737453544172E-003	1.000000000000000E+000	5.780384853975193E+002
-5.3590048E-002	-2.525234425979267E-003	1.000000000000000E+000	5.780784853965088E+002
-6.3587606E-002	-2.530663991513620E-003	1.000000000000000E+000	5.781184853954983E+002
-7.3586732E-002	-2.534779648371718E-003	1.000000000000000E+000	5.781584853944878E+002
-8.3600618E-002	-2.547694780249143E-003	1.000000000000000E+000	5.781984853934773E+002
-9.3584880E-002	-2.551855005317391E-003	1.000000000000000E+000	5.782384853924668E+002
-1.0359951E-001	-2.560926362724619E-003	1.000000000000000E+000	5.782784853914563E+002
-1.1359255E-001	-2.563931474367336E-003	1.000000000000000E+000	5.783184853904459E+002
-1.2359285E-001	-2.573165610723349E-003	1.000000000000000E+000	5.783584853894354E+002
-1.3358898E-001	-2.575716528554019E-003	1.000000000000000E+000	5.783984853884249E+002
-1.4359076E-001	-2.585826256331424E-003	1.000000000000000E+000	5.784384853874144E+002
-1.5359120E-001	-2.599430908670590E-003	1.000000000000000E+000	5.784784853864039E+002
-1.6358656E-001	-2.606076278109916E-003	1.000000000000000E+000	5.785184853853934E+002
-1.7356928E-001	-2.617695534772028E-003	1.000000000000000E+000	5.785584853843829E+002
-1.8357904E-001	-2.628606250561195E-003	1.000000000000000E+000	5.785984853833725E+002
-1.9358508E-001	-2.644628081270630E-003	1.000000000000000E+000	5.786384853823620E+002
-1.9984826E-001	-2.647367306053638E-003	1.000000000000000E+000	5.786633853817330E+002
-1.9347754E-001	2.042368491508909E-003	1.000000000000000E+000	5.786888853810888E+002
-1.8347469E-001	2.176644259662344E-003	1.000000000000000E+000	5.787288853800783E+002
-1.7345782E-001	2.237679233433369E-003	1.000000000000000E+000	5.787688853790678E+002
-1.6348162E-001	2.267346506117495E-003	1.000000000000000E+000	5.788088853780573E+002
-1.5347777E-001	2.300867520470654E-003	1.000000000000000E+000	5.788488853770468E+002
-1.4347480E-001	2.315209859363905E-003	1.000000000000000E+000	5.788888853760363E+002
-1.3349496E-001	2.330004190600140E-003	1.000000000000000E+000	5.789288853750259E+002
-1.2348125E-001	2.334823633297994E-003	1.000000000000000E+000	5.789688853740154E+002
-1.1349642E-001	2.348489647704136E-003	1.000000000000000E+000	5.790088853730049E+002
-1.0348076E-001	2.352644218100466E-003	1.000000000000000E+000	5.790488853719944E+002
-9.3484133E-002	2.352383990696885E-003	1.000000000000000E+000	5.790888853709839E+002
-8.3484516E-002	2.356548403816570E-003	1.000000000000000E+000	5.791288853699734E+002
-7.3482178E-002	2.363387406882002E-003	1.000000000000000E+000	5.791688853689629E+002
-6.3481793E-002	2.365181389389993E-003	1.000000000000000E+000	5.792088853679525E+002
-5.3481206E-002	2.366329076239175E-003	1.000000000000000E+000	5.792488853669420E+002
-4.3481126E-002	2.361707386111182E-003	1.000000000000000E+000	5.792888853659315E+002
-3.3482999E-002	2.363147005131147E-003	1.000000000000000E+000	5.793288853649210E+002
-2.3473088E-002	2.368499033833869E-003	1.000000000000000E+000	5.793688853639105E+002
-1.7571660E-002	2.367048510278656E-003	2.000000000000000E+000	5.793924853633143E+002
-7.5728283E-003	2.362104410891266E-003	2.000000000000000E+000	5.794324853623039E+002
2.4270916E-003	2.369970852316571E-003	2.000000000000000E+000	5.794724853612934E+002
1.2428046E-002	2.366734985237304E-003	2.000000000000000E+000	5.795124853602829E+002
2.2435281E-002	2.359433576546130E-003	2.000000000000000E+000	5.795524853592724E+002
3.2430183E-002	2.373010673372141E-003	2.000000000000000E+000	5.795924853582619E+002
4.2425416E-002	2.371805028323446E-003	2.000000000000000E+000	5.796324853572514E+002
5.2424468E-002	2.371641962489401E-003	2.000000000000000E+000	5.796724853562409E+002
6.2428802E-002	2.371122525253636E-003	2.000000000000000E+000	5.797124853552305E+002
7.2425887E-002	2.367845756680281E-003	2.000000000000000E+000	5.797524853542200E+002
8.2428426E-002	2.375588296319873E-003	2.000000000000000E+000	5.797924853532095E+002
9.2423968E-002	2.367790498037366E-003	2.000000000000000E+000	5.798324853521990E+002
1.0242695E-001	2.375219491039736E-003	2.000000000000000E+000	5.798724853511885E+002
1.1242305E-001	2.374692152833258E-003	2.000000000000000E+000	5.799124853501780E+002
1.2241930E-001	2.375775103260216E-003	2.000000000000000E+000	5.799524853491675E+002
1.3242780E-001	2.379501922915771E-003	2.000000000000000E+000	5.799924853481571E+002
1.4241740E-001	2.381017131738758E-003	2.000000000000000E+000	5.800324853471466E+002
1.5241201E-001	2.386414414740086E-003	2.000000000000000E+000	5.800724853461361E+002
1.6242394E-001	2.388873598902728E-003	2.000000000000000E+000	5.801124853451256E+002
1.7240986E-001	2.389396994013466E-003	2.000000000000000E+000	5.801524853441151E+002
1.8242805E-001	2.389173200262308E-003	2.000000000000000E+000	5.801924853431046E+002
1.9242340E-001	2.391025414959734E-003	2.000000000000000E+000	5.802324853420942E+002
2.0013352E-001	2.380801364779472E-003	2.000000000000000E+000	5.802633853413136E+002
1.9639675E-001	-1.812918375667417E-003	2.000000000000000E+000	5.802788853409220E+002
1.8641317E-001	-1.948367645985709E-003	2.000000000000000E+000	5.803188853399115E+002
1.7641293E-001	-2.032259486357492E-003	2.000000000000000E+000	5.803588853389010E+002
1.6641258E-001	-2.070276039575554E-003	2.000000000000000E+000	5.803988853378905E+002
1.5640897E-001	-2.111721402663552E-003	2.000000000000000E+000	5.804388853368800E+002
1.4640927E-001	-2.143850860731433E-003	2.000000000000000E+000	5.804788853358696E+002
1.3641420E-001	-2.168118406903626E-003	2.000000000000000E+000	5.805188853348591E+002
1.2640573E-001	-2.192558293616576E-003	2.000000000000000E+000	5.805588853338486E+002
1.1641511E-001	-2.214456041721317E-003	2.000000000000000E+000	5.805988853328381E+002
1.0640479E-001	-2.232324015652418E-003	2.000000000000000E+000	5.806388853318276E+002
9.6411884E-002	-2.246858610969481E-003	2.000000000000000E+000	5.806788853308171E+002
8.6417660E-002	-2.262780142315492E-003	2.000000000000000E+000	5.807188853298067E+002
7.6411173E-002	-2.285414157099973E-003	2.000000000000000E+000	5.807588853287962E+002
6.6414699E-002	-2.300702946791796E-003	2.000000000000000E+000	5.807988853277857E+002
5.6409534E-002	-2.320242407918408E-003	2.000000000000000E+000	5.808388853267752E+002
4.6404526E-002	-2.330616596504910E-003	2.000000000000000E+000	5.808788853257647E+002
3.6401927E-002	-2.342983301485531E-003	2.000000000000000E+000	5.809188853247542E+002
2.6408313E-002	-2.360939656357759E-003	2.000000000000000E+000	5.809588853237437E+002
1.6409187E-002	-2.368503239448694E-003	2.000000000000000E+000	5.809988853227333E+002
6.4017191E-003	-2.387238601103243E-003	2.000000000000000E+000	5.810388853217228E+002
-3.6038053E-003	-2.398834297272660E-003	2.000000000000000E+000	5.810788853207123E+002
-1.3603652E-002	-2.410415125788327E-003	2.000000000000000E+000	5.811188853197018E+002
-2.3605326E-002	-2.418758373551070E-003	2.000000000000000E+000	5.811588853186913E+002
-3.3603735E-002	-2.435696150509342E-003	2.000000000000000E+000	5.811988853176808E+002
-4.3604627E-002	-2.450868492453091E-003	2.000000000000000E+000	5.812388853166703E+002
-5.3611498E-002	-2.460460567827033E-003	2.000000000000000E+000	5.812788853156599E+002
-6.3601092E-002	-2.461073191653292E-003	2.000000000000000E+000	5.813188853146494E+002
-7.3595747E-002	-2.470088253101813E-003	2.000000000000000E+000	5.813588853136389E+002
-8.3600193E-002	-2.479421409477725E-003	2.000000000000000E+000	5.813988853126284E+002
-9.3606539E-002	-2.486034804879082E-003	2.000000000000000E+000	5.814388853116179E+002
-1.0360763E-001	-2.496750016559530E-003	2.000000000000000E+000	5.814788853106074E+002
-1.1360905E-001	-2.502973585464738E-003	2.000000000000000E+000	5.815188853095970E+002
-1.2359401E-001	-2.511182028479629E-003	2.000000000000000E+000	5.815588853085865E+002
-1.3359593E-001	-2.521134159961726E-003	2.000000000000000E+000	5.815988853075760E+002
-1.4359818E-001	-2.521840163131019E-003	2.000000000000000E+000	5.816388853065655E+002
-1.5360607E-001	-2.546450909801698E-003	2.000000000000000E+000	5.816788853055550E+002
-1.6360684E-001	-2.553603887760360E-003	2.000000000000000E+000	5.817188853045445E+002
-1.7358896E-001	-2.572067785236775E-003	2.000000000000000E+000	5.817588853035340E+002
-1.8359309E-001	-2.587860710226920E-003	2.000000000000000E+000	5.817988853025236E+002
-1.9359399E-001	-2.604108277502770E-003	2.000000000000000E+000	5.818388853015131E+002
-1.9986354E-001	-2.604403998702765E-003	2.000000000000000E+000	5.818637853008840E+002
-1.9349785E-001	2.070426683215460E-003	2.000000000000000E+000	5.818892853002399E+002
-1.8348747E-001	2.193109198185807E-003	2.000000000000000E+000	5.819292852992294E+002
-1.7347592E-001	2.249547236000866E-003	2.000000000000000E+000	5.819692852982189E+002
-1.6348420E-001	2.280975318775108E-003	2.000000000000000E+000	5.820092852972084E+002
-1.5349418E-001	2.302981183958077E-003	2.000000000000000E+000	5.820492852961979E+002
-1.4349224E-001	2.316027412661615E-003	2.000000000000000E+000	5.820892852951874E+002
-1.3349040E-001	2.332339733514788E-003	2.000000000000000E+000	5.821292852941770E+002
-1.2349880E-001	2.336297420665074E-003	2.000000000000000E+000	5.821692852931665E+002
-1.1350586E-001	2.341946370947624E-003	2.000000000000000E+000	5.822092852921560E+002
-1.0350387E-001	2.350881226842542E-003	2.000000000000000E+000	5.822492852911455E+002
-9.3494721E-002	2.355189582551858E-003	2.000000000000000E+000	5.822892852901350E+002
-8.3494559E-002	2.352104728149213E-003	2.000000000000000E+000	5.823292852891245E+002
-7.3507570E-002	2.361780732793995E-003	2.000000000000000E+000	5.823692852881140E+002
-6.3486636E-002	2.363142050835085E-003	2.000000000000000E+000	5.824092852871036E+002
-5.3497851E-002	2.360984259486082E-003	2.000000000000000E+000	5.824492852860931E+002
-4.3500893E-002	2.361434044541064E-003	2.000000000000000E+000	5.824892852850826E+002
-3.3507179E-002	2.360981511150842E-003	2.000000000000000E+000	5.825292852840721E+002
-2.3500111E-002	2.364662429137809E-003	2.000000000000000E+000	5.825692852830616E+002
-1.7591784E-002	2.358555538713943E-003	3.000000000000000E+000	5.825928852824654E+002
-7.5962651E-003	2.359169449038995E-003	3.000000000000000E+000	5.826328852814549E+002
2.4116880E-003	2.364007467836673E-003	3.000000000000000E+000	5.826728852804445E+002
1.2403907E-002	2.363592603183426E-003	3.000000000000000E+000	5.827128852794340E+002
2.2417109E-002	2.360362971098689E-003	3.000000000000000E+000	5.827528852784235E+002
3.2408431E-002	2.362189887133700E-003	3.000000000000000E+000	5.827928852774130E+002
4.2409342E-002	2.363355666217593E-003	3.000000000000000E+000	5.828328852764025E+002
5.2408319E-002	2.368203370048046E-003	3.000000000000000E+000	5.828728852753920E+002
6.2408995E-002	2.363124421083081E-003	3.000000000000000E+000	5.829128852743816E+002
7.2407492E-002	2.365529341450793E-003	3.000000000000000E+000	5.829528852733711E+002
8.2409121E-002	2.366704544537794E-003	3.000000000000000E+000	5.829928852723606E+002
9.2410147E-002	2.367989250206877E-003	3.000000000000000E+000	5.830328852713501E+002
1.0243272E-001	2.377492793292361E-003	3.000000000000000E+000	5.830728852703396E+002
1.1242247E-001	2.372405984515928E-003	3.000000000000000E+000	5.831128852693291E+002
1.2242032E-001	2.375549862943811E-003	3.000000000000000E+000	5.831528852683186E+002
1.3242312E-001	2.375422964196728E-003	3.000000000000000E+000	5.831928852673082E+002
1.4242241E-001	2.376141400979935E-003	3.000000000000000E+000	5.832328852662977E+002
1.5241021E-001	2.383377622334394E-003	3.000000000000000E+000	5.832728852652872E+002
1.6241811E-001	2.383042572959413E-003	3.000000000000000E+000	5.833128852642767E+002
1.7241196E-001	2.382751596639674E-003	3.000000000000000E+000	5.833528852632662E+002
1.8241839E-001	2.386407979341223E-003	3.000000000000000E+000	5.833928852622557E+002
1.9241622E-001	2.386497187722970E-003	3.000000000000000E+000	5.834328852612452E+002
2.0012970E-001	2.383935730904341E-003	3.000000000000000E+000	5.834637852604646E+002
1.9640079E-001	-1.809932684172767E-003	3.000000000000000E+000	5.834792852600731E+002
1.8641151E-001	-1.944543727928724E-003	3.000000000000000E+000	5.835192852590626E+002
1.7641406E-001	-2.027528310477731E-003	3.000000000000000E+000	5.835592852580521E+002
1.6640605E-001	-2.072235559149233E-003	3.000000000000000E+000	5.835992852570416E+002
1.5640573E-001	-2.107397677755944E-003	3.000000000000000E+000	5.836392852560311E+002
1.4640746E-001	-2.132216496749802E-003	3.000000000000000E+000	5.836792852550207E+002
1.3641354E-001	-2.160749576488520E-003	3.000000000000000E+000	5.837192852540102E+002
1.2641145E-001	-2.191541457589152E-003	3.000000000000000E+000	5.837592852529997E+002
1.1641055E-001	-2.202072031901037E-003	3.000000000000000E+000	5.837992852519892E+002
1.0640888E-001	-2.226002208043566E-003	3.000000000000000E+000	5.838392852509787E+002
9.6411273E-002	-2.241740283575266E-003	3.000000000000000E+000	5.838792852499682E+002
8.6406052E-002	-2.257013486541819E-003	3.000000000000000E+000	5.839192852489577E+002
7.6415710E-002	-2.279179168941189E-003	3.000000000000000E+000	5.839592852479473E+002
6.6418335E-002	-2.293653801026642E-003	3.000000000000000E+000	5.839992852469368E+002
5.6411881E-002	-2.310590864221789E-003	3.000000000000000E+000	5.840392852459263E+002
4.6411119E-002	-2.320655808605382E-003	3.000000000000000E+000	5.840792852449158E+002
3.6408011E-002	-2.341385271624943E-003	3.000000000000000E+000	5.841192852439053E+002
2.6405500E-002	-2.357062658839642E-003	3.000000000000000E+000	5.841592852428948E+002
1.6408991E-002	-2.366476759306686E-003	3.000000000000000E+000	5.841992852418844E+002
6.4226608E-003	-2.382211900335173E-003	3.000000000000000E+000	5.842392852408739E+002
-3.6004910E-003	-2.395984284346123E-003	3.000000000000000E+000	5.842792852398634E+002
-1.3610824E-002	-2.409445621363963E-003	3.000000000000000E+000	5.843192852388529E+002
-2.3594137E-002	-2.415145894302626E-003	3.000000000000000E+000	5.843592852378424E+002
-3.3601552E-002	-2.427270907363104E-003	3.000000000000000E+000	5.843992852368319E+002
-4.3610986E-002	-2.438950154407132E-003	3.000000000000000E+000	5.844392852358214E+002
-5.3602327E-002	-2.448016545147356E-003	3.000000000000000E+000	5.844792852348110E+002
