Ewe/V	<I>/mA	cycle number	time/s	
3.1042710E-002	-6.195433903485537E-003	1.000000000000000E+000	6.246089842210495E+002
2.8987581E-002	-5.510680891774731E-003	1.000000000000000E+000	6.246140842209206E+002
2.4991661E-002	-4.784114771823327E-003	1.000000000000000E+000	6.246240842206680E+002
2.0989658E-002	-4.444678910083280E-003	1.000000000000000E+000	6.246340842204154E+002
1.6995370E-002	-4.236348817793938E-003	1.000000000000000E+000	6.246440842201628E+002
1.2990369E-002	-4.114836173422551E-003	1.000000000000000E+000	6.246540842199101E+002
8.9932373E-003	-4.025813642616659E-003	1.000000000000000E+000	6.246640842196575E+002
4.9954443E-003	-3.964132530858873E-003	1.000000000000000E+000	6.246740842194049E+002
9.9496066E-004	-3.919411360538042E-003	1.000000000000000E+000	6.246840842191523E+002
-3.0141075E-003	-3.891296936087299E-003	1.000000000000000E+000	6.246940842188997E+002
-1.2979979E-002	-3.824140054496911E-003	1.000000000000000E+000	6.247190842182681E+002
-2.2985915E-002	-3.782964622262450E-003	1.000000000000000E+000	6.247440842176366E+002
-2.6993969E-002	-3.787444546449026E-003	1.000000000000000E+000	6.247540842173839E+002
-3.0997355E-002	-3.778746658619089E-003	1.000000000000000E+000	6.247640842171313E+002
-3.4991760E-002	-3.768862374940590E-003	1.000000000000000E+000	6.247740842168787E+002
-3.8988080E-002	-3.779448309429327E-003	1.000000000000000E+000	6.247840842166261E+002
-4.2991884E-002	-3.767563613722297E-003	1.000000000000000E+000	6.247940842163734E+002
-4.6988551E-002	-3.771352795076939E-003	1.000000000000000E+000	6.248040842161208E+002
-5.0982431E-002	-3.775610180127828E-003	1.000000000000000E+000	6.248140842158682E+002
-5.4992497E-002	-3.774240696907752E-003	1.000000000000000E+000	6.248240842156156E+002
-5.8981746E-002	-3.774627892708993E-003	1.000000000000000E+000	6.248340842153630E+002
-6.2984526E-002	-3.781908592075930E-003	1.000000000000000E+000	6.248440842151103E+002
-6.6985287E-002	-3.781994169884784E-003	1.000000000000000E+000	6.248540842148577E+002
-7.0983902E-002	-3.783459039544902E-003	1.000000000000000E+000	6.248640842146051E+002
-7.4982718E-002	-3.788607571643302E-003	1.000000000000000E+000	6.248740842143525E+002
-7.8985237E-002	-3.795681946698687E-003	1.000000000000000E+000	6.248840842140999E+002
-8.2985654E-002	-3.796775597029169E-003	1.000000000000000E+000	6.248940842138472E+002
-8.6987585E-002	-3.802909774549272E-003	1.000000000000000E+000	6.249040842135946E+002
-9.0990022E-002	-3.804444045912583E-003	1.000000000000000E+000	6.249140842133420E+002
-9.4985254E-002	-3.806746877346834E-003	1.000000000000000E+000	6.249240842130894E+002
-9.8991103E-002	-3.813385548719607E-003	1.000000000000000E+000	6.249340842128368E+002
-1.0300133E-001	-3.817642915320725E-003	1.000000000000000E+000	6.249440842125841E+002
-1.0698935E-001	-3.819663677543793E-003	1.000000000000000E+000	6.249540842123315E+002
-1.1099900E-001	-3.819805671763730E-003	1.000000000000000E+000	6.249640842120789E+002
-1.1500392E-001	-3.823601291171513E-003	1.000000000000000E+000	6.249740842118263E+002
-1.1899098E-001	-3.825758235627849E-003	1.000000000000000E+000	6.249840842115736E+002
-1.2300142E-001	-3.829956307359930E-003	1.000000000000000E+000	6.249940842113210E+002
-1.2699680E-001	-3.832384322034754E-003	1.000000000000000E+000	6.250040842110684E+002
-1.3101040E-001	-3.838290205767744E-003	1.000000000000000E+000	6.250140842108158E+002
-1.3499260E-001	-3.839542098422480E-003	1.000000000000000E+000	6.250240842105632E+002
-1.3899656E-001	-3.842146827574432E-003	1.000000000000000E+000	6.250340842103105E+002
-1.4299977E-001	-3.845008462010351E-003	1.000000000000000E+000	6.250440842100579E+002
-1.4699273E-001	-3.846289418941821E-003	1.000000000000000E+000	6.250540842098053E+002
-1.5100758E-001	-3.854746496082397E-003	1.000000000000000E+000	6.250640842095527E+002
-1.5499827E-001	-3.856240617774218E-003	1.000000000000000E+000	6.250740842093001E+002
-1.5899263E-001	-3.856823289796130E-003	1.000000000000000E+000	6.250840842090474E+002
-1.6299886E-001	-3.863756187660744E-003	1.000000000000000E+000	6.250940842087948E+002
-1.6699171E-001	-3.870369596825147E-003	1.000000000000000E+000	6.251040842085422E+002
-1.7098430E-001	-3.875938118458787E-003	1.000000000000000E+000	6.251140842082896E+002
-1.7498054E-001	-3.881766813979719E-003	1.000000000000000E+000	6.251240842080369E+002
-1.7898214E-001	-3.888489951229809E-003	1.000000000000000E+000	6.251340842077843E+002
-1.8299255E-001	-3.897582776275769E-003	1.000000000000000E+000	6.251440842075317E+002
-1.8699273E-001	-3.903445482722256E-003	1.000000000000000E+000	6.251540842072791E+002
-1.9099033E-001	-3.906655874585815E-003	1.000000000000000E+000	6.251640842070265E+002
-1.9499302E-001	-3.918571813904433E-003	1.000000000000000E+000	6.251740842067738E+002
-1.9838440E-001	-3.921766218568587E-003	1.000000000000000E+000	6.251825842065591E+002
-1.9984902E-001	-3.942641895264387E-003	1.000000000000000E+000	6.251861842064682E+002
-2.0005159E-001	-3.937061876058578E-003	1.000000000000000E+000	6.251863842064631E+002
-2.0010126E-001	-3.912866581231356E-003	2.000000000000000E+000	6.251867842064530E+002
-1.9818561E-001	7.806902795492805E-004	2.000000000000000E+000	6.251918842063242E+002
-1.9377768E-001	2.826388161626121E-003	2.000000000000000E+000	6.252018842060716E+002
-1.8978587E-001	2.907728063802339E-003	2.000000000000000E+000	6.252118842058189E+002
-1.8576887E-001	2.991564856547845E-003	2.000000000000000E+000	6.252218842055663E+002
-1.8178362E-001	3.048452483486799E-003	2.000000000000000E+000	6.252318842053137E+002
-1.7175439E-001	3.119005372151519E-003	2.000000000000000E+000	6.252568842046821E+002
-1.6176921E-001	3.195968605472929E-003	2.000000000000000E+000	6.252818842040506E+002
-1.5776952E-001	3.218338048703390E-003	2.000000000000000E+000	6.252918842037980E+002
-1.5377067E-001	3.230509540376954E-003	2.000000000000000E+000	6.253018842035453E+002
-1.4977187E-001	3.249536827631697E-003	2.000000000000000E+000	6.253118842032927E+002
-1.4576100E-001	3.263025332513788E-003	2.000000000000000E+000	6.253218842030401E+002
-1.4176135E-001	3.271455510995919E-003	2.000000000000000E+000	6.253318842027875E+002
-1.3776161E-001	3.280726832534650E-003	2.000000000000000E+000	6.253418842025349E+002
-1.3377216E-001	3.288329283285374E-003	2.000000000000000E+000	6.253518842022822E+002
-1.2978595E-001	3.303804054509384E-003	2.000000000000000E+000	6.253618842020296E+002
-1.1976667E-001	3.318271246887793E-003	2.000000000000000E+000	6.253868842013981E+002
-1.0979037E-001	3.348835096282900E-003	2.000000000000000E+000	6.254118842007665E+002
-1.0578958E-001	3.349849195032874E-003	2.000000000000000E+000	6.254218842005139E+002
-1.0178823E-001	3.353415855915046E-003	2.000000000000000E+000	6.254318842002613E+002
-9.7774394E-002	3.363239063581186E-003	2.000000000000000E+000	6.254418842000086E+002
-9.3786009E-002	3.358808040168394E-003	2.000000000000000E+000	6.254518841997560E+002
-8.9782543E-002	3.368877878733217E-003	2.000000000000000E+000	6.254618841995034E+002
-8.5783198E-002	3.367716047742615E-003	2.000000000000000E+000	6.254718841992508E+002
-8.1788398E-002	3.370079558009137E-003	2.000000000000000E+000	6.254818841989982E+002
-7.7781081E-002	3.373459273870158E-003	2.000000000000000E+000	6.254918841987455E+002
-7.3786467E-002	3.377020174643957E-003	2.000000000000000E+000	6.255018841984929E+002
-6.9783419E-002	3.372493153257970E-003	2.000000000000000E+000	6.255118841982403E+002
-6.5784350E-002	3.373768473521735E-003	2.000000000000000E+000	6.255218841979877E+002
-6.1782934E-002	3.379011706987997E-003	2.000000000000000E+000	6.255318841977351E+002
-5.7796054E-002	3.378369314824770E-003	2.000000000000000E+000	6.255418841974824E+002
-5.3790208E-002	3.379555107316370E-003	2.000000000000000E+000	6.255518841972298E+002
-4.9789827E-002	3.381169448774174E-003	2.000000000000000E+000	6.255618841969772E+002
-4.5791995E-002	3.378720773089684E-003	2.000000000000000E+000	6.255718841967246E+002
-4.1794699E-002	3.379278894814847E-003	2.000000000000000E+000	6.255818841964719E+002
-3.7797794E-002	3.378920460577067E-003	2.000000000000000E+000	6.255918841962193E+002
-3.3792429E-002	3.376883325853113E-003	2.000000000000000E+000	6.256018841959667E+002
-2.9796030E-002	3.376395877907938E-003	2.000000000000000E+000	6.256118841957141E+002
-2.5790352E-002	3.389252004488294E-003	2.000000000000000E+000	6.256218841954615E+002
-2.1786425E-002	3.376200049397288E-003	2.000000000000000E+000	6.256318841952088E+002
-1.7789293E-002	3.371740246463159E-003	2.000000000000000E+000	6.256418841949562E+002
-1.3789189E-002	3.373682679726459E-003	2.000000000000000E+000	6.256518841947036E+002
-9.7725512E-003	3.372229490641837E-003	2.000000000000000E+000	6.256618841944510E+002
-5.7867612E-003	3.373564958388812E-003	2.000000000000000E+000	6.256718841941984E+002
-1.7798734E-003	3.378014411319630E-003	2.000000000000000E+000	6.256818841939457E+002
2.2249438E-003	3.378092439914104E-003	2.000000000000000E+000	6.256918841936931E+002
6.2264800E-003	3.369588462321979E-003	2.000000000000000E+000	6.257018841934405E+002
1.0218071E-002	3.367097013584265E-003	2.000000000000000E+000	6.257118841931879E+002
1.4224406E-002	3.369238702427066E-003	2.000000000000000E+000	6.257218841929352E+002
1.8222120E-002	3.369650163491250E-003	2.000000000000000E+000	6.257318841926826E+002
2.2223812E-002	3.367859783895505E-003	2.000000000000000E+000	6.257418841924300E+002
2.6228584E-002	3.370946998260590E-003	2.000000000000000E+000	6.257518841921774E+002
3.0237379E-002	3.375185072882834E-003	2.000000000000000E+000	6.257618841919248E+002
3.4232125E-002	3.363717252907447E-003	2.000000000000000E+000	6.257718841916721E+002
3.8235761E-002	3.367091822216339E-003	2.000000000000000E+000	6.257818841914195E+002
4.2231768E-002	3.361346768552043E-003	2.000000000000000E+000	6.257918841911669E+002
4.6220165E-002	3.361818386389266E-003	2.000000000000000E+000	6.258018841909143E+002
5.0228596E-002	3.364861601006214E-003	2.000000000000000E+000	6.258118841906617E+002
5.4233607E-002	3.367790952259926E-003	2.000000000000000E+000	6.258218841904090E+002
5.8234602E-002	3.358334163860915E-003	2.000000000000000E+000	6.258318841901564E+002
6.2229246E-002	3.360650855391209E-003	2.000000000000000E+000	6.258418841899038E+002
6.6232242E-002	3.362658397422006E-003	2.000000000000000E+000	6.258518841896512E+002
7.0231251E-002	3.356704073036024E-003	2.000000000000000E+000	6.258618841893986E+002
7.4218787E-002	3.359167025977591E-003	2.000000000000000E+000	6.258718841891459E+002
7.8225292E-002	3.360544496092424E-003	2.000000000000000E+000	6.258818841888933E+002
8.2228445E-002	3.355853478352609E-003	2.000000000000000E+000	6.258918841886407E+002
8.6230248E-002	3.357178124634694E-003	2.000000000000000E+000	6.259018841883881E+002
9.0233788E-002	3.355225206326654E-003	2.000000000000000E+000	6.259118841881354E+002
9.4234899E-002	3.350053737440101E-003	2.000000000000000E+000	6.259218841878828E+002
9.8230936E-002	3.349845652207625E-003	2.000000000000000E+000	6.259318841876302E+002
1.0222942E-001	3.351987471061767E-003	2.000000000000000E+000	6.259418841873776E+002
1.0623521E-001	3.347937773599263E-003	2.000000000000000E+000	6.259518841871250E+002
1.1022972E-001	3.349342164525262E-003	2.000000000000000E+000	6.259618841868723E+002
1.1423081E-001	3.343892264666144E-003	2.000000000000000E+000	6.259718841866197E+002
1.1823139E-001	3.346375985195368E-003	2.000000000000000E+000	6.259818841863671E+002
1.2222678E-001	3.341436316439267E-003	2.000000000000000E+000	6.259918841861145E+002
1.2622052E-001	3.342969051888710E-003	2.000000000000000E+000	6.260018841858619E+002
1.3023584E-001	3.347086669997900E-003	2.000000000000000E+000	6.260118841856092E+002
1.3422546E-001	3.333965599007855E-003	2.000000000000000E+000	6.260218841853566E+002
1.3822550E-001	3.334505366341105E-003	2.000000000000000E+000	6.260318841851040E+002
1.4223169E-001	3.343498257492028E-003	2.000000000000000E+000	6.260418841848514E+002
1.4623521E-001	3.333184267635958E-003	2.000000000000000E+000	6.260518841845987E+002
1.5023200E-001	3.332123768081077E-003	2.000000000000000E+000	6.260618841843461E+002
1.5423113E-001	3.339322577009050E-003	2.000000000000000E+000	6.260718841840935E+002
1.5823336E-001	3.335211685132877E-003	2.000000000000000E+000	6.260818841838409E+002
1.6223469E-001	3.330597104910085E-003	2.000000000000000E+000	6.260918841835883E+002
1.6622323E-001	3.326416134713170E-003	2.000000000000000E+000	6.261018841833356E+002
1.7022790E-001	3.332437811265271E-003	2.000000000000000E+000	6.261118841830830E+002
1.7423071E-001	3.329974210726325E-003	2.000000000000000E+000	6.261218841828304E+002
1.7822894E-001	3.331546601741023E-003	2.000000000000000E+000	6.261318841825778E+002
1.8223502E-001	3.325411958067750E-003	2.000000000000000E+000	6.261418841823252E+002
1.8623087E-001	3.324476672852572E-003	2.000000000000000E+000	6.261518841820725E+002
1.9022934E-001	3.324087596541070E-003	2.000000000000000E+000	6.261618841818199E+002
1.9423500E-001	3.321976333572077E-003	2.000000000000000E+000	6.261718841815673E+002
1.9811267E-001	3.319359482722328E-003	2.000000000000000E+000	6.261815841813223E+002
2.0001428E-001	3.311884123831987E-003	2.000000000000000E+000	6.261863841812010E+002
2.0008306E-001	3.307641716673970E-003	2.000000000000000E+000	6.261865841811959E+002
2.0014423E-001	3.279968164861202E-003	2.000000000000000E+000	6.261867841811909E+002
1.9839399E-001	-9.352726455341895E-004	2.000000000000000E+000	6.261918841810621E+002
1.8804727E-001	-2.624049388587568E-003	2.000000000000000E+000	6.262168841804305E+002
1.7802143E-001	-2.795516361727209E-003	2.000000000000000E+000	6.262418841797989E+002
1.7402789E-001	-2.825899744772039E-003	2.000000000000000E+000	6.262518841795463E+002
1.7001887E-001	-2.856240382930158E-003	2.000000000000000E+000	6.262618841792937E+002
1.6601866E-001	-2.883178872326982E-003	2.000000000000000E+000	6.262718841790411E+002
1.6203223E-001	-2.911811956400161E-003	2.000000000000000E+000	6.262818841787885E+002
1.5802726E-001	-2.932362254026005E-003	2.000000000000000E+000	6.262918841785358E+002
1.5402244E-001	-2.955195114634733E-003	2.000000000000000E+000	6.263018841782832E+002
1.5002656E-001	-2.968915199261901E-003	2.000000000000000E+000	6.263118841780306E+002
1.4602357E-001	-2.991417499687274E-003	2.000000000000000E+000	6.263218841777780E+002
1.3608184E-001	-3.012312041432971E-003	2.000000000000000E+000	6.263468841771464E+002
1.2605879E-001	-3.060199494438129E-003	2.000000000000000E+000	6.263718841765149E+002
1.2204801E-001	-3.065049590624775E-003	2.000000000000000E+000	6.263818841762622E+002
1.1805217E-001	-3.079773083309346E-003	2.000000000000000E+000	6.263918841760096E+002
1.1405838E-001	-3.098004259300038E-003	2.000000000000000E+000	6.264018841757570E+002
1.1004886E-001	-3.104418018414865E-003	2.000000000000000E+000	6.264118841755044E+002
1.0605222E-001	-3.118591999634865E-003	2.000000000000000E+000	6.264218841752518E+002
1.0204791E-001	-3.135827028342766E-003	2.000000000000000E+000	6.264318841749991E+002
9.8053418E-002	-3.142967987393899E-003	2.000000000000000E+000	6.264418841747465E+002
9.4050050E-002	-3.153827608373939E-003	2.000000000000000E+000	6.264518841744939E+002
9.0047561E-002	-3.167635596991160E-003	2.000000000000000E+000	6.264618841742413E+002
8.6050034E-002	-3.175732505181286E-003	2.000000000000000E+000	6.264718841739887E+002
8.2049400E-002	-3.190658005993940E-003	2.000000000000000E+000	6.264818841737360E+002
7.8057230E-002	-3.203550653538223E-003	2.000000000000000E+000	6.264918841734834E+002
7.4046806E-002	-3.219579144041147E-003	2.000000000000000E+000	6.265018841732308E+002
7.0055522E-002	-3.225323403753713E-003	2.000000000000000E+000	6.265118841729782E+002
6.6047810E-002	-3.237615015445838E-003	2.000000000000000E+000	6.265218841727255E+002
6.2048152E-002	-3.248570395768077E-003	2.000000000000000E+000	6.265318841724729E+002
5.8063317E-002	-3.259068993698641E-003	2.000000000000000E+000	6.265418841722203E+002
5.4056842E-002	-3.279451293546622E-003	2.000000000000000E+000	6.265518841719677E+002
5.0055645E-002	-3.289700328451176E-003	2.000000000000000E+000	6.265618841717151E+002
4.6046440E-002	-3.295183618487192E-003	2.000000000000000E+000	6.265718841714624E+002
4.2046834E-002	-3.309357999235221E-003	2.000000000000000E+000	6.265818841712098E+002
3.8048070E-002	-3.321756446439381E-003	2.000000000000000E+000	6.265918841709572E+002
3.4048676E-002	-3.329479346315800E-003	2.000000000000000E+000	6.266018841707046E+002
3.0062394E-002	-3.342629107139908E-003	2.000000000000000E+000	6.266118841704520E+002
2.6054464E-002	-3.365866247730387E-003	2.000000000000000E+000	6.266218841701993E+002
2.2044776E-002	-3.365771470094946E-003	2.000000000000000E+000	6.266318841699467E+002
1.8037856E-002	-3.378865460212030E-003	2.000000000000000E+000	6.266418841696941E+002
1.4035112E-002	-3.385610075634295E-003	2.000000000000000E+000	6.266518841694415E+002
1.0040672E-002	-3.393402938334997E-003	2.000000000000000E+000	6.266618841691889E+002
6.0413973E-003	-3.409252685602868E-003	2.000000000000000E+000	6.266718841689362E+002
2.0381443E-003	-3.415900435811609E-003	2.000000000000000E+000	6.266818841686836E+002
-1.9601972E-003	-3.430005312269196E-003	2.000000000000000E+000	6.266918841684310E+002
-5.9679030E-003	-3.435915065020521E-003	2.000000000000000E+000	6.267018841681784E+002
-9.9538108E-003	-3.442541870253023E-003	2.000000000000000E+000	6.267118841679257E+002
-1.3966977E-002	-3.452500958422956E-003	2.000000000000000E+000	6.267218841676731E+002
-1.7958228E-002	-3.463574838684605E-003	2.000000000000000E+000	6.267318841674205E+002
-2.1966871E-002	-3.473360233913654E-003	2.000000000000000E+000	6.267418841671679E+002
-2.5962444E-002	-3.475719664251906E-003	2.000000000000000E+000	6.267518841669153E+002
-2.9968476E-002	-3.496108034559409E-003	2.000000000000000E+000	6.267618841666626E+002
-3.3977594E-002	-3.499691672904898E-003	2.000000000000000E+000	6.267718841664100E+002
-3.7971955E-002	-3.504134766871506E-003	2.000000000000000E+000	6.267818841661574E+002
-4.1972369E-002	-3.513916226921161E-003	2.000000000000000E+000	6.267918841659048E+002
-4.5970164E-002	-3.520578302423180E-003	2.000000000000000E+000	6.268018841656522E+002
-4.9966093E-002	-3.529322522780917E-003	2.000000000000000E+000	6.268118841653995E+002
-5.3972989E-002	-3.537998318325651E-003	2.000000000000000E+000	6.268218841651469E+002
-5.7956163E-002	-3.539853061209516E-003	2.000000000000000E+000	6.268318841648943E+002
-6.1958268E-002	-3.552990455921865E-003	2.000000000000000E+000	6.268418841646417E+002
-6.5966278E-002	-3.556106599828482E-003	2.000000000000000E+000	6.268518841643890E+002
-6.9958232E-002	-3.562527726175229E-003	2.000000000000000E+000	6.268618841641364E+002
-7.3969573E-002	-3.572887757724942E-003	2.000000000000000E+000	6.268718841638838E+002
-7.7966698E-002	-3.578374857448665E-003	2.000000000000000E+000	6.268818841636312E+002
-8.1970260E-002	-3.586135715847483E-003	2.000000000000000E+000	6.268918841633786E+002
-8.5961781E-002	-3.586858399734300E-003	2.000000000000000E+000	6.269018841631259E+002
-8.9964710E-002	-3.597911601863554E-003	2.000000000000000E+000	6.269118841628733E+002
-9.3974277E-002	-3.598138906816459E-003	2.000000000000000E+000	6.269218841626207E+002
-9.7964212E-002	-3.605160028228582E-003	2.000000000000000E+000	6.269318841623681E+002
-1.0197244E-001	-3.610659753056585E-003	2.000000000000000E+000	6.269418841621155E+002
-1.0597147E-001	-3.616963167847355E-003	2.000000000000000E+000	6.269518841618628E+002
-1.0996784E-001	-3.620002366080025E-003	2.000000000000000E+000	6.269618841616102E+002
-1.1397102E-001	-3.624191180306810E-003	2.000000000000000E+000	6.269718841613576E+002
-1.1796293E-001	-3.632963228529670E-003	2.000000000000000E+000	6.269818841611050E+002
-1.2198123E-001	-3.633424687264686E-003	2.000000000000000E+000	6.269918841608524E+002
-1.2596567E-001	-3.638270051665941E-003	2.000000000000000E+000	6.270018841605997E+002
-1.2996915E-001	-3.652415667147541E-003	2.000000000000000E+000	6.270118841603471E+002
-1.3396390E-001	-3.654844775786717E-003	2.000000000000000E+000	6.270218841600945E+002
-1.3796407E-001	-3.656155104487600E-003	2.000000000000000E+000	6.270318841598419E+002
-1.4196731E-001	-3.666398430651682E-003	2.000000000000000E+000	6.270418841595892E+002
-1.4595762E-001	-3.669590046720964E-003	2.000000000000000E+000	6.270518841593366E+002
-1.4997074E-001	-3.679104269116412E-003	2.000000000000000E+000	6.270618841590840E+002
-1.5396686E-001	-3.689525066809918E-003	2.000000000000000E+000	6.270718841588314E+002
-1.5797454E-001	-3.699547947198109E-003	2.000000000000000E+000	6.270818841585788E+002
-1.6197196E-001	-3.698757392213499E-003	2.000000000000000E+000	6.270918841583261E+002
-1.6596434E-001	-3.708913860900387E-003	2.000000000000000E+000	6.271018841580735E+002
-1.6995665E-001	-3.721451953285312E-003	2.000000000000000E+000	6.271118841578209E+002
-1.7395641E-001	-3.733358870750617E-003	2.000000000000000E+000	6.271218841575683E+002
-1.7795303E-001	-3.738227564062210E-003	2.000000000000000E+000	6.271318841573157E+002
-1.8196376E-001	-3.755909767881552E-003	2.000000000000000E+000	6.271418841570630E+002
-1.8595529E-001	-3.760814808165168E-003	2.000000000000000E+000	6.271518841568104E+002
-1.8996358E-001	-3.774715289878508E-003	2.000000000000000E+000	6.271618841565578E+002
-1.9395962E-001	-3.787017764965116E-003	2.000000000000000E+000	6.271718841563052E+002
-1.9787404E-001	-3.795813644946355E-003	2.000000000000000E+000	6.271816841560576E+002
-1.9984902E-001	-3.816925454884768E-003	2.000000000000000E+000	6.271865841559338E+002
-1.9999042E-001	-3.807560773566365E-003	2.000000000000000E+000	6.271867841559288E+002
-2.0005541E-001	-3.784015309065580E-003	3.000000000000000E+000	6.271871841559187E+002
-1.9818382E-001	8.991593136059659E-004	3.000000000000000E+000	6.271922841557898E+002
-1.9377847E-001	2.914725866299268E-003	3.000000000000000E+000	6.272022841555372E+002
-1.8978408E-001	2.987374355598177E-003	3.000000000000000E+000	6.272122841552846E+002
-1.8578064E-001	3.052775291851125E-003	3.000000000000000E+000	6.272222841550320E+002
-1.8178576E-001	3.104896696427491E-003	3.000000000000000E+000	6.272322841547793E+002
-1.7778090E-001	3.151529712683962E-003	3.000000000000000E+000	6.272422841545267E+002
-1.7377339E-001	3.175460339170239E-003	3.000000000000000E+000	6.272522841542741E+002
-1.6376594E-001	3.214050743896132E-003	3.000000000000000E+000	6.272772841536425E+002
-1.5378226E-001	3.262111387840022E-003	3.000000000000000E+000	6.273022841530110E+002
-1.4978506E-001	3.273244768321606E-003	3.000000000000000E+000	6.273122841527584E+002
-1.4577614E-001	3.285849397250781E-003	3.000000000000000E+000	6.273222841525057E+002
-1.4178310E-001	3.292898210484266E-003	3.000000000000000E+000	6.273322841522531E+002
-1.3777311E-001	3.301268638004333E-003	3.000000000000000E+000	6.273422841520005E+002
-1.3378313E-001	3.306313918250363E-003	3.000000000000000E+000	6.273522841517479E+002
-1.2978265E-001	3.321947601827059E-003	3.000000000000000E+000	6.273622841514953E+002
-1.2577862E-001	3.320304323236170E-003	3.000000000000000E+000	6.273722841512426E+002
-1.2178053E-001	3.330764087998137E-003	3.000000000000000E+000	6.273822841509900E+002
-1.1178948E-001	3.337770376903151E-003	3.000000000000000E+000	6.274072841503585E+002
-1.0181114E-001	3.364233441377082E-003	3.000000000000000E+000	6.274322841497269E+002
-9.7798295E-002	3.365376612116368E-003	3.000000000000000E+000	6.274422841494743E+002
-9.3810581E-002	3.367113374484473E-003	3.000000000000000E+000	6.274522841492217E+002
-8.9801520E-002	3.370378691085689E-003	3.000000000000000E+000	6.274622841489690E+002
-8.5803628E-002	3.370129460266512E-003	3.000000000000000E+000	6.274722841487164E+002
-8.1804842E-002	3.374516892962483E-003	3.000000000000000E+000	6.274822841484638E+002
-7.7791408E-002	3.375690991950814E-003	3.000000000000000E+000	6.274922841482112E+002
-7.3789254E-002	3.379694253852719E-003	3.000000000000000E+000	6.275022841479586E+002
-6.9788173E-002	3.382430666236799E-003	3.000000000000000E+000	6.275122841477059E+002
-6.5797850E-002	3.373483034196489E-003	3.000000000000000E+000	6.275222841474533E+002
-6.1797906E-002	3.381232135566591E-003	3.000000000000000E+000	6.275322841472007E+002
-5.7780206E-002	3.380867914084070E-003	3.000000000000000E+000	6.275422841469481E+002
-5.3794496E-002	3.377349074192071E-003	3.000000000000000E+000	6.275522841466955E+002
-4.9787678E-002	3.381033742800590E-003	3.000000000000000E+000	6.275622841464428E+002
-4.5790195E-002	3.377744557457527E-003	3.000000000000000E+000	6.275722841461902E+002
-4.1793097E-002	3.380522403190582E-003	3.000000000000000E+000	6.275822841459376E+002
-3.7799321E-002	3.374752243324106E-003	3.000000000000000E+000	6.275922841456850E+002
-3.3799019E-002	3.378668868208499E-003	3.000000000000000E+000	6.276022841454324E+002
-2.9798374E-002	3.373991283993141E-003	3.000000000000000E+000	6.276122841451797E+002
-2.5792301E-002	3.382853474593123E-003	3.000000000000000E+000	6.276222841449271E+002
-2.1790562E-002	3.367952278040343E-003	3.000000000000000E+000	6.276322841446745E+002
-1.7794013E-002	3.374616530223050E-003	3.000000000000000E+000	6.276422841444219E+002
-1.3792346E-002	3.370807050969826E-003	3.000000000000000E+000	6.276522841441692E+002
-9.7920122E-003	3.371033685337442E-003	3.000000000000000E+000	6.276622841439166E+002
-5.7959659E-003	3.372800704088470E-003	3.000000000000000E+000	6.276722841436640E+002
-1.7861135E-003	3.367922734125837E-003	3.000000000000000E+000	6.276822841434114E+002
2.2120359E-003	3.369588811670043E-003	3.000000000000000E+000	6.276922841431588E+002
6.2125972E-003	3.366955030101912E-003	3.000000000000000E+000	6.277022841429061E+002
1.0215538E-002	3.367678631891594E-003	3.000000000000000E+000	6.277122841426535E+002
1.4210873E-002	3.362499363002147E-003	3.000000000000000E+000	6.277222841424009E+002
1.8216386E-002	3.363814080636754E-003	3.000000000000000E+000	6.277322841421483E+002
2.2216013E-002	3.360752641657805E-003	3.000000000000000E+000	6.277422841418957E+002
2.6213612E-002	3.363203208200327E-003	3.000000000000000E+000	6.277522841416430E+002
3.0222714E-002	3.371267047822035E-003	3.000000000000000E+000	6.277622841413904E+002
3.4225926E-002	3.361149675955136E-003	3.000000000000000E+000	6.277722841411378E+002
3.8231988E-002	3.360721448430318E-003	3.000000000000000E+000	6.277822841408852E+002
4.2224314E-002	3.358635254207210E-003	3.000000000000000E+000	6.277922841406325E+002
4.6230841E-002	3.356213118116368E-003	3.000000000000000E+000	6.278022841403799E+002
5.0221700E-002	3.357382353006380E-003	3.000000000000000E+000	6.278122841401273E+002
5.4223742E-002	3.357902960460193E-003	3.000000000000000E+000	6.278222841398747E+002
5.8231987E-002	3.360514423251075E-003	3.000000000000000E+000	6.278322841396221E+002
6.2223893E-002	3.351637207278879E-003	3.000000000000000E+000	6.278422841393694E+002
6.6221595E-002	3.359398395044705E-003	3.000000000000000E+000	6.278522841391168E+002
7.0225470E-002	3.352680120073948E-003	3.000000000000000E+000	6.278622841388642E+002
7.4230015E-002	3.353363923127170E-003	3.000000000000000E+000	6.278722841386116E+002
7.8227766E-002	3.358549074999606E-003	3.000000000000000E+000	6.278822841383590E+002
8.2232542E-002	3.349940438297699E-003	3.000000000000000E+000	6.278922841381063E+002
8.6221129E-002	3.347675262672573E-003	3.000000000000000E+000	6.279022841378537E+002
9.0227388E-002	3.349142656338254E-003	3.000000000000000E+000	6.279122841376011E+002
9.4219618E-002	3.350882863946518E-003	3.000000000000000E+000	6.279222841373485E+002
9.8240130E-002	3.346556597154323E-003	3.000000000000000E+000	6.279322841370958E+002
1.0222277E-001	3.343937108174759E-003	3.000000000000000E+000	6.279422841368432E+002
1.0622292E-001	3.345812801853768E-003	3.000000000000000E+000	6.279522841365906E+002
1.1022487E-001	3.340710348070111E-003	3.000000000000000E+000	6.279622841363380E+002
1.1422072E-001	3.343005039656760E-003	3.000000000000000E+000	6.279722841360854E+002
1.1822581E-001	3.341592653353532E-003	3.000000000000000E+000	6.279822841358327E+002
1.2222764E-001	3.344499919727927E-003	3.000000000000000E+000	6.279922841355801E+002
1.2622826E-001	3.337655534667250E-003	3.000000000000000E+000	6.280022841353275E+002
1.3024087E-001	3.341676192381586E-003	3.000000000000000E+000	6.280122841350749E+002
1.3422455E-001	3.332559432952381E-003	3.000000000000000E+000	6.280222841348223E+002
1.3823223E-001	3.335145373799933E-003	3.000000000000000E+000	6.280322841345696E+002
1.4222121E-001	3.334711584687188E-003	3.000000000000000E+000	6.280422841343170E+002
1.4621930E-001	3.333362214051533E-003	3.000000000000000E+000	6.280522841340644E+002
1.5021776E-001	3.337378677927952E-003	3.000000000000000E+000	6.280622841338118E+002
1.5422912E-001	3.337236412836363E-003	3.000000000000000E+000	6.280722841335592E+002
1.5822549E-001	3.332244790958741E-003	3.000000000000000E+000	6.280822841333065E+002
1.6222298E-001	3.333030161424458E-003	3.000000000000000E+000	6.280922841330539E+002
1.6623007E-001	3.331486139851068E-003	3.000000000000000E+000	6.281022841328013E+002
1.7022164E-001	3.330477012844568E-003	3.000000000000000E+000	6.281122841325487E+002
1.7421696E-001	3.331724797618019E-003	3.000000000000000E+000	6.281222841322960E+002
1.7822945E-001	3.333005232982099E-003	3.000000000000000E+000	6.281322841320434E+002
1.8222336E-001	3.330005189851312E-003	3.000000000000000E+000	6.281422841317908E+002
1.8622893E-001	3.330334944454408E-003	3.000000000000000E+000	6.281522841315382E+002
1.9022129E-001	3.330165442697111E-003	3.000000000000000E+000	6.281622841312856E+002
1.9422019E-001	3.323492077414641E-003	3.000000000000000E+000	6.281722841310329E+002
1.9810241E-001	3.324853427023364E-003	3.000000000000000E+000	6.281819841307879E+002
1.9998370E-001	3.312610555440187E-003	3.000000000000000E+000	6.281867841306666E+002
2.0011747E-001	3.309858730062842E-003	3.000000000000000E+000	6.281869841306616E+002
2.0013657E-001	3.286809893324971E-003	3.000000000000000E+000	6.281871841306565E+002
1.9838914E-001	-9.273240793106000E-004	3.000000000000000E+000	6.281922841305277E+002
1.9402851E-001	-2.548113781015139E-003	3.000000000000000E+000	6.282022841302751E+002
1.9003931E-001	-2.613681218574533E-003	3.000000000000000E+000	6.282122841300225E+002
1.8003526E-001	-2.723910069372726E-003	3.000000000000000E+000	6.282372841293909E+002
1.7002125E-001	-2.845875312195101E-003	3.000000000000000E+000	6.282622841287593E+002
1.6602683E-001	-2.875280533103496E-003	3.000000000000000E+000	6.282722841285067E+002
1.6202454E-001	-2.898821174618829E-003	3.000000000000000E+000	6.282822841282541E+002
1.5802217E-001	-2.923841827173482E-003	3.000000000000000E+000	6.282922841280015E+002
1.5401947E-001	-2.946786038044512E-003	3.000000000000000E+000	6.283022841277489E+002
1.5001693E-001	-2.959536612187133E-003	3.000000000000000E+000	6.283122841274962E+002
1.4601736E-001	-2.979949620938133E-003	3.000000000000000E+000	6.283222841272436E+002
1.4203353E-001	-2.994678240648484E-003	3.000000000000000E+000	6.283322841269910E+002
1.3803326E-001	-3.010337426438071E-003	3.000000000000000E+000	6.283422841267384E+002
1.2803745E-001	-3.033343721507823E-003	3.000000000000000E+000	6.283672841261068E+002
1.1804538E-001	-3.075307029260368E-003	3.000000000000000E+000	6.283922841254753E+002
1.1403398E-001	-3.084200698659868E-003	3.000000000000000E+000	6.284022841252227E+002
1.1006037E-001	-3.094285730036729E-003	3.000000000000000E+000	6.284122841249700E+002
1.0605430E-001	-3.112312693776067E-003	3.000000000000000E+000	6.284222841247174E+002
1.0205378E-001	-3.126879771227713E-003	3.000000000000000E+000	6.284322841244648E+002
9.8056786E-002	-3.131697965142954E-003	3.000000000000000E+000	6.284422841242122E+002
9.4048172E-002	-3.149151734899568E-003	3.000000000000000E+000	6.284522841239595E+002
9.0047382E-002	-3.156518246233087E-003	3.000000000000000E+000	6.284622841237069E+002
8.6051337E-002	-3.169180065776073E-003	3.000000000000000E+000	6.284722841234543E+002
8.2056738E-002	-3.181880829186136E-003	3.000000000000000E+000	6.284822841232017E+002
7.8060053E-002	-3.193017292650577E-003	3.000000000000000E+000	6.284922841229491E+002
7.4040852E-002	-3.212275742461461E-003	3.000000000000000E+000	6.285022841226964E+002
7.0050254E-002	-3.214780183822888E-003	3.000000000000000E+000	6.285122841224438E+002
6.6048138E-002	-3.231499737856705E-003	3.000000000000000E+000	6.285222841221912E+002
6.2057130E-002	-3.237012835245176E-003	3.000000000000000E+000	6.285322841219386E+002
5.8054972E-002	-3.256156855049791E-003	3.000000000000000E+000	6.285422841216860E+002
5.4048836E-002	-3.263708066214691E-003	3.000000000000000E+000	6.285522841214333E+002
5.0049365E-002	-3.273839789230522E-003	3.000000000000000E+000	6.285622841211807E+002
4.6058442E-002	-3.291566188107338E-003	3.000000000000000E+000	6.285722841209281E+002
4.2049844E-002	-3.298862845496094E-003	3.000000000000000E+000	6.285822841206755E+002
3.8044684E-002	-3.311627658205182E-003	3.000000000000000E+000	6.285922841204228E+002
3.4046106E-002	-3.319972100941884E-003	3.000000000000000E+000	6.286022841201702E+002
3.0053692E-002	-3.333954998086058E-003	3.000000000000000E+000	6.286122841199176E+002
2.6039876E-002	-3.351687980887835E-003	3.000000000000000E+000	6.286222841196650E+002
2.2053704E-002	-3.350869286100041E-003	3.000000000000000E+000	6.286322841194124E+002
1.8055053E-002	-3.364464362285977E-003	3.000000000000000E+000	6.286422841191597E+002
1.4047550E-002	-3.377109641349976E-003	3.000000000000000E+000	6.286522841189071E+002
1.0050380E-002	-3.383673606280398E-003	3.000000000000000E+000	6.286622841186545E+002
6.0405000E-003	-3.395857392856014E-003	3.000000000000000E+000	6.286722841184019E+002
2.0446957E-003	-3.404809032334158E-003	3.000000000000000E+000	6.286822841181493E+002
-1.9646818E-003	-3.421204094268271E-003	3.000000000000000E+000	6.286922841178966E+002
-5.9656026E-003	-3.423720277633185E-003	3.000000000000000E+000	6.287022841176440E+002
-9.9633262E-003	-3.431183525755865E-003	3.000000000000000E+000	6.287122841173914E+002
-1.3965026E-002	-3.432886793447942E-003	3.000000000000000E+000	6.287222841171388E+002
-1.7972264E-002	-3.457062813159037E-003	3.000000000000000E+000	6.287322841168861E+002
-2.1965545E-002	-3.460997115817724E-003	3.000000000000000E+000	6.287422841166335E+002
-2.5976485E-002	-3.471540176178636E-003	3.000000000000000E+000	6.287522841163809E+002
-2.9977873E-002	-3.473363205316375E-003	3.000000000000000E+000	6.287622841161283E+002
-3.3981103E-002	-3.483679948584117E-003	3.000000000000000E+000	6.287722841158757E+002
-3.7971992E-002	-3.497212162872104E-003	3.000000000000000E+000	6.287822841156230E+002
-4.1976508E-002	-3.495940565569192E-003	3.000000000000000E+000	6.287922841153704E+002
-4.5967791E-002	-3.503459808004580E-003	3.000000000000000E+000	6.288022841151178E+002
-4.9965780E-002	-3.517218988653564E-003	3.000000000000000E+000	6.288122841148652E+002
-5.3973969E-002	-3.523018323263294E-003	3.000000000000000E+000	6.288222841146126E+002
-5.7968352E-002	-3.529126706362865E-003	3.000000000000000E+000	6.288322841143599E+002
-6.1964303E-002	-3.536184725548147E-003	3.000000000000000E+000	6.288422841141073E+002
-6.5964371E-002	-3.543282219699018E-003	3.000000000000000E+000	6.288522841138547E+002
-6.9962479E-002	-3.547214129616325E-003	3.000000000000000E+000	6.288622841136021E+002
-7.3973931E-002	-3.557326127975075E-003	3.000000000000000E+000	6.288722841133495E+002
-7.7964917E-002	-3.563973784051114E-003	3.000000000000000E+000	6.288822841130968E+002
-8.1969872E-002	-3.568676561965769E-003	3.000000000000000E+000	6.288922841128442E+002
-8.5970044E-002	-3.574274856641635E-003	3.000000000000000E+000	6.289022841125916E+002
-8.9975461E-002	-3.578853379278737E-003	3.000000000000000E+000	6.289122841123390E+002
-9.3976147E-002	-3.583794296817482E-003	3.000000000000000E+000	6.289222841120863E+002
-9.7969361E-002	-3.588661170276577E-003	3.000000000000000E+000	6.289322841118337E+002
-1.0197428E-001	-3.597253932843558E-003	3.000000000000000E+000	6.289422841115811E+002
-1.0597730E-001	-3.600386671251339E-003	3.000000000000000E+000	6.289522841113285E+002
-1.0997016E-001	-3.600116523900888E-003	3.000000000000000E+000	6.289622841110759E+002
-1.1397127E-001	-3.608348944509288E-003	3.000000000000000E+000	6.289722841108232E+002
-1.1796221E-001	-3.615560778004609E-003	3.000000000000000E+000	6.289822841105706E+002
-1.2196619E-001	-3.615301261496430E-003	3.000000000000000E+000	6.289922841103180E+002
-1.2596999E-001	-3.623521588099012E-003	3.000000000000000E+000	6.290022841100654E+002
-1.2996870E-001	-3.631717860116609E-003	3.000000000000000E+000	6.290122841098128E+002
-1.3395791E-001	-3.632338386997058E-003	3.000000000000000E+000	6.290222841095601E+002
-1.3796510E-001	-3.641497937112506E-003	3.000000000000000E+000	6.290322841093075E+002
-1.4196983E-001	-3.646114691148242E-003	3.000000000000000E+000	6.290422841090549E+002
-1.4595996E-001	-3.650370333245362E-003	3.000000000000000E+000	6.290522841088023E+002
-1.4996697E-001	-3.661614375297521E-003	3.000000000000000E+000	6.290622841085496E+002
-1.5397280E-001	-3.671888229950550E-003	3.000000000000000E+000	6.290722841082970E+002
-1.5797019E-001	-3.671786133843238E-003	3.000000000000000E+000	6.290822841080444E+002
-1.6196972E-001	-3.683108017505210E-003	3.000000000000000E+000	6.290922841077918E+002
-1.6596963E-001	-3.691933710092091E-003	3.000000000000000E+000	6.291022841075392E+002
-1.6996054E-001	-3.693764873277126E-003	3.000000000000000E+000	6.291122841072865E+002
-1.7395748E-001	-3.708941901884207E-003	3.000000000000000E+000	6.291222841070339E+002
-1.7795649E-001	-3.719095728785968E-003	3.000000000000000E+000	6.291322841067813E+002
-1.8196413E-001	-3.731759620584772E-003	3.000000000000000E+000	6.291422841065287E+002
-1.8596111E-001	-3.738057080663172E-003	3.000000000000000E+000	6.291522841062761E+002
-1.8996248E-001	-3.753458388427099E-003	3.000000000000000E+000	6.291622841060234E+002
-1.9396365E-001	-3.759589462370774E-003	3.000000000000000E+000	6.291722841057708E+002
-1.9788037E-001	-3.774560269196932E-003	3.000000000000000E+000	6.291820841055232E+002
-1.9981082E-001	-3.781912615522742E-003	3.000000000000000E+000	6.291869841053995E+002
-1.9997896E-001	-3.775529563426971E-003	3.000000000000000E+000	6.291871841053944E+002
-2.0000571E-001	-3.751448821276426E-003	4.000000000000000E+000	6.291875841053843E+002
-1.9818133E-001	9.212293476081827E-004	4.000000000000000E+000	6.291926841052555E+002
-1.9377351E-001	2.932943227501646E-003	4.000000000000000E+000	6.292026841050028E+002
-1.8978828E-001	2.997967669476319E-003	4.000000000000000E+000	6.292126841047502E+002
-1.8578787E-001	3.066970685082170E-003	4.000000000000000E+000	6.292226841044976E+002
-1.8179293E-001	3.112204090159925E-003	4.000000000000000E+000	6.292326841042450E+002
-1.7778102E-001	3.163622986699498E-003	4.000000000000000E+000	6.292426841039924E+002
-1.7377909E-001	3.183390793765312E-003	4.000000000000000E+000	6.292526841037397E+002
-1.6978294E-001	3.207980562495230E-003	4.000000000000000E+000	6.292626841034871E+002
-1.6578457E-001	3.231898150233475E-003	4.000000000000000E+000	6.292726841032345E+002
-1.5578210E-001	3.261415344341490E-003	4.000000000000000E+000	6.292976841026029E+002
-1.4577514E-001	3.285600523677407E-003	4.000000000000000E+000	6.293226841019714E+002
-1.4178678E-001	3.297506005653844E-003	4.000000000000000E+000	6.293326841017188E+002
-1.3777508E-001	3.305713214911347E-003	4.000000000000000E+000	6.293426841014661E+002
-1.3378192E-001	3.312710541241409E-003	4.000000000000000E+000	6.293526841012135E+002
-1.2978268E-001	3.319485023810728E-003	4.000000000000000E+000	6.293626841009609E+002
-1.2578225E-001	3.324380142806423E-003	4.000000000000000E+000	6.293726841007083E+002
-1.2178821E-001	3.331557608585121E-003	4.000000000000000E+000	6.293826841004557E+002
-1.1777726E-001	3.335839305348129E-003	4.000000000000000E+000	6.293926841002030E+002
-1.1378469E-001	3.338705347445937E-003	4.000000000000000E+000	6.294026840999504E+002
-1.0377763E-001	3.346503541960311E-003	4.000000000000000E+000	6.294276840993189E+002
-9.3813613E-002	3.361866926418475E-003	4.000000000000000E+000	6.294526840986873E+002
-8.9799196E-002	3.372453262764655E-003	4.000000000000000E+000	6.294626840984347E+002
-8.5793473E-002	3.369627598695704E-003	4.000000000000000E+000	6.294726840981821E+002
-8.1802547E-002	3.373076595751798E-003	4.000000000000000E+000	6.294826840979295E+002
-7.7793211E-002	3.374364931283842E-003	4.000000000000000E+000	6.294926840976768E+002
-7.3796496E-002	3.377403278656370E-003	4.000000000000000E+000	6.295026840974242E+002
-6.9798857E-002	3.373962743659614E-003	4.000000000000000E+000	6.295126840971716E+002
-6.5796889E-002	3.374175221250345E-003	4.000000000000000E+000	6.295226840969190E+002
-6.1791662E-002	3.378622550984339E-003	4.000000000000000E+000	6.295326840966663E+002
-5.7794251E-002	3.376013229840047E-003	4.000000000000000E+000	6.295426840964137E+002
-5.3807996E-002	3.374568964773103E-003	4.000000000000000E+000	6.295526840961611E+002
-4.9804214E-002	3.380561062302331E-003	4.000000000000000E+000	6.295626840959085E+002
-4.5806658E-002	3.376949294473613E-003	4.000000000000000E+000	6.295726840956559E+002
-4.1804291E-002	3.373525592609009E-003	4.000000000000000E+000	6.295826840954032E+002
-3.7802562E-002	3.375770890856188E-003	4.000000000000000E+000	6.295926840951506E+002
-3.3806004E-002	3.371179150189186E-003	4.000000000000000E+000	6.296026840948980E+002
-2.9806051E-002	3.376654414871769E-003	4.000000000000000E+000	6.296126840946454E+002
-2.5808720E-002	3.372322951960053E-003	4.000000000000000E+000	6.296226840943928E+002
-2.1797117E-002	3.372127332521818E-003	4.000000000000000E+000	6.296326840941401E+002
-1.7796660E-002	3.371382715641295E-003	4.000000000000000E+000	6.296426840938875E+002
-1.3803187E-002	3.365822640225082E-003	4.000000000000000E+000	6.296526840936349E+002
-9.7945463E-003	3.368614958635992E-003	4.000000000000000E+000	6.296626840933823E+002
-5.7973680E-003	3.364273553870620E-003	4.000000000000000E+000	6.296726840931296E+002
-1.7938737E-003	3.371380355140598E-003	4.000000000000000E+000	6.296826840928770E+002
2.2168322E-003	3.370315021537878E-003	4.000000000000000E+000	6.296926840926244E+002
6.2121302E-003	3.364885111100877E-003	4.000000000000000E+000	6.297026840923718E+002
1.0218658E-002	3.362891905964019E-003	4.000000000000000E+000	6.297126840921192E+002
1.4206894E-002	3.359694982519855E-003	4.000000000000000E+000	6.297226840918665E+002
1.8216696E-002	3.358717141267974E-003	4.000000000000000E+000	6.297326840916139E+002
2.2216054E-002	3.357016339763610E-003	4.000000000000000E+000	6.297426840913613E+002
2.6210802E-002	3.360884869454545E-003	4.000000000000000E+000	6.297526840911087E+002
3.0224390E-002	3.367600829557144E-003	4.000000000000000E+000	6.297626840908561E+002
3.4220550E-002	3.355170199242571E-003	4.000000000000000E+000	6.297726840906034E+002
3.8221605E-002	3.356550877321535E-003	4.000000000000000E+000	6.297826840903508E+002
4.2219877E-002	3.356052246118124E-003	4.000000000000000E+000	6.297926840900982E+002
4.6221059E-002	3.352407440049845E-003	4.000000000000000E+000	6.298026840898456E+002
5.0219864E-002	3.356666694594918E-003	4.000000000000000E+000	6.298126840895929E+002
5.4219656E-002	3.354365847965786E-003	4.000000000000000E+000	6.298226840893403E+002
5.8224149E-002	3.353960613998355E-003	4.000000000000000E+000	6.298326840890877E+002
6.2222015E-002	3.350561417076375E-003	4.000000000000000E+000	6.298426840888351E+002
6.6221900E-002	3.351909867034236E-003	4.000000000000000E+000	6.298526840885825E+002
7.0229307E-002	3.354277823189283E-003	4.000000000000000E+000	6.298626840883298E+002
7.4215263E-002	3.346244280014732E-003	4.000000000000000E+000	6.298726840880772E+002
7.8225985E-002	3.354523422340418E-003	4.000000000000000E+000	6.298826840878246E+002
8.2227275E-002	3.348556825715496E-003	4.000000000000000E+000	6.298926840875720E+002
8.6230174E-002	3.348937617940903E-003	4.000000000000000E+000	6.299026840873194E+002
9.0222754E-002	3.345673082642012E-003	4.000000000000000E+000	6.299126840870667E+002
9.4220936E-002	3.339718870606440E-003	4.000000000000000E+000	6.299226840868141E+002
9.8228328E-002	3.345873575403419E-003	4.000000000000000E+000	6.299326840865615E+002
1.0222195E-001	3.346105983085615E-003	4.000000000000000E+000	6.299426840863089E+002
1.0622846E-001	3.339018110748361E-003	4.000000000000000E+000	6.299526840860563E+002
1.1022384E-001	3.342335716687184E-003	4.000000000000000E+000	6.299626840858036E+002
1.1422132E-001	3.336608359942927E-003	4.000000000000000E+000	6.299726840855510E+002
1.1822241E-001	3.341307166084929E-003	4.000000000000000E+000	6.299826840852984E+002
1.2222228E-001	3.336396537355469E-003	4.000000000000000E+000	6.299926840850458E+002
1.2623134E-001	3.335742518453245E-003	4.000000000000000E+000	6.300026840847931E+002
1.3022622E-001	3.339333569644568E-003	4.000000000000000E+000	6.300126840845405E+002
1.3423847E-001	3.335064196831751E-003	4.000000000000000E+000	6.300226840842879E+002
1.3823521E-001	3.334304382341176E-003	4.000000000000000E+000	6.300326840840353E+002
1.4222051E-001	3.327789382545243E-003	4.000000000000000E+000	6.300426840837827E+002
1.4621793E-001	3.332953345269923E-003	4.000000000000000E+000	6.300526840835300E+002
1.5021721E-001	3.332961484560748E-003	4.000000000000000E+000	6.300626840832774E+002
1.5422173E-001	3.330934952447642E-003	4.000000000000000E+000	6.300726840830248E+002
1.5822367E-001	3.333790401716344E-003	4.000000000000000E+000	6.300826840827722E+002
1.6221191E-001	3.331223939071364E-003	4.000000000000000E+000	6.300926840825196E+002
1.6621949E-001	3.331277014462931E-003	4.000000000000000E+000	6.301026840822669E+002
1.7021589E-001	3.328823999133753E-003	4.000000000000000E+000	6.301126840820143E+002
1.7421748E-001	3.332926721325243E-003	4.000000000000000E+000	6.301226840817617E+002
1.7822121E-001	3.331826092646128E-003	4.000000000000000E+000	6.301326840815091E+002
1.8221582E-001	3.331925300374568E-003	4.000000000000000E+000	6.301426840812564E+002
1.8621019E-001	3.327635211202801E-003	4.000000000000000E+000	6.301526840810038E+002
1.9021998E-001	3.325267742555454E-003	4.000000000000000E+000	6.301626840807512E+002
1.9422029E-001	3.326954647741819E-003	4.000000000000000E+000	6.301726840804986E+002
1.9810191E-001	3.325239733780841E-003	4.000000000000000E+000	6.301823840802535E+002
2.0006779E-001	3.318688133731484E-003	4.000000000000000E+000	6.301871840801323E+002
2.0008308E-001	3.313489956781268E-003	4.000000000000000E+000	6.301873840801272E+002
2.0015569E-001	3.287803381681442E-003	4.000000000000000E+000	6.301875840801222E+002
1.9838369E-001	-9.239893138800123E-004	4.000000000000000E+000	6.301926840799933E+002
1.9403499E-001	-2.547405030280912E-003	4.000000000000000E+000	6.302026840797407E+002
1.9002953E-001	-2.614723804359800E-003	4.000000000000000E+000	6.302126840794881E+002
1.8604429E-001	-2.674052993639549E-003	4.000000000000000E+000	6.302226840792355E+002
1.8204919E-001	-2.729537666700489E-003	4.000000000000000E+000	6.302326840789829E+002
1.7805104E-001	-2.770316786080309E-003	4.000000000000000E+000	6.302426840787302E+002
1.6197720E-001	-2.894990938386854E-003	4.000000000000000E+000	6.302827840777172E+002
1.5801416E-001	-2.917758207164585E-003	4.000000000000000E+000	6.302926840774671E+002
1.5401395E-001	-2.941487803248167E-003	4.000000000000000E+000	6.303026840772145E+002
1.5000431E-001	-2.957910732601102E-003	4.000000000000000E+000	6.303126840769619E+002
1.4601620E-001	-2.970421181896877E-003	4.000000000000000E+000	6.303226840767093E+002
1.4201933E-001	-2.992095487217940E-003	4.000000000000000E+000	6.303326840764566E+002
1.3802457E-001	-3.008750202260810E-003	4.000000000000000E+000	6.303426840762040E+002
1.3402727E-001	-3.021191986850372E-003	4.000000000000000E+000	6.303526840759514E+002
1.3001719E-001	-3.035143721077376E-003	4.000000000000000E+000	6.303626840756988E+002
1.2601776E-001	-3.058405594151247E-003	4.000000000000000E+000	6.303726840754462E+002
1.1603545E-001	-3.063586572327342E-003	4.000000000000000E+000	6.303976840748146E+002
1.0604742E-001	-3.112085466093047E-003	4.000000000000000E+000	6.304226840741831E+002
1.0205389E-001	-3.119526107769013E-003	4.000000000000000E+000	6.304326840739304E+002
9.8049290E-002	-3.132469766560259E-003	4.000000000000000E+000	6.304426840736778E+002
9.4054773E-002	-3.141048572986757E-003	4.000000000000000E+000	6.304526840734252E+002
9.0048075E-002	-3.156849866395415E-003	4.000000000000000E+000	6.304626840731726E+002
8.6048119E-002	-3.167522926504504E-003	4.000000000000000E+000	6.304726840729199E+002
8.2042620E-002	-3.178011524550106E-003	4.000000000000000E+000	6.304826840726673E+002
7.8049481E-002	-3.189866751004689E-003	4.000000000000000E+000	6.304926840724147E+002
7.4048989E-002	-3.206125253655011E-003	4.000000000000000E+000	6.305026840721621E+002
7.0047788E-002	-3.214598356277867E-003	4.000000000000000E+000	6.305126840719095E+002
6.6042319E-002	-3.223592124914826E-003	4.000000000000000E+000	6.305226840716568E+002
6.2037010E-002	-3.239108147533171E-003	4.000000000000000E+000	6.305326840714042E+002
5.8048990E-002	-3.249824406032754E-003	4.000000000000000E+000	6.305426840711516E+002
5.4050550E-002	-3.261865152849961E-003	4.000000000000000E+000	6.305526840708990E+002
5.0052263E-002	-3.273691601388753E-003	4.000000000000000E+000	6.305626840706464E+002
4.6040621E-002	-3.283878630990854E-003	4.000000000000000E+000	6.305726840703937E+002
4.2043805E-002	-3.293325525544552E-003	4.000000000000000E+000	6.305826840701411E+002
3.8039684E-002	-3.306752596890117E-003	4.000000000000000E+000	6.305926840698885E+002
3.4046065E-002	-3.318329232848652E-003	4.000000000000000E+000	6.306026840696359E+002
3.0051243E-002	-3.329704045566383E-003	4.000000000000000E+000	6.306126840693832E+002
2.6038827E-002	-3.344842479914292E-003	4.000000000000000E+000	6.306226840691306E+002
2.2041691E-002	-3.350303828288548E-003	4.000000000000000E+000	6.306326840688780E+002
1.8047020E-002	-3.360146606331771E-003	4.000000000000000E+000	6.306426840686254E+002
1.4037293E-002	-3.368277999294240E-003	4.000000000000000E+000	6.306526840683728E+002
1.0045742E-002	-3.379935446260696E-003	4.000000000000000E+000	6.306626840681201E+002
6.0365624E-003	-3.391439938983498E-003	4.000000000000000E+000	6.306726840678675E+002
2.0407571E-003	-3.398091246504462E-003	4.000000000000000E+000	6.306826840676149E+002
-1.9695568E-003	-3.413953018433835E-003	4.000000000000000E+000	6.306926840673623E+002
-5.9774574E-003	-3.422814764996215E-003	4.000000000000000E+000	6.307026840671097E+002
-9.9698789E-003	-3.423671958833939E-003	4.000000000000000E+000	6.307126840668570E+002
-1.3981405E-002	-3.435330417279107E-003	4.000000000000000E+000	6.307226840666044E+002
-1.7978739E-002	-3.444497193320729E-003	4.000000000000000E+000	6.307326840663518E+002
-2.1971080E-002	-3.445260689306639E-003	4.000000000000000E+000	6.307426840660992E+002
-2.5975078E-002	-3.466733678142538E-003	4.000000000000000E+000	6.307526840658466E+002
-2.9974831E-002	-3.472460709993002E-003	4.000000000000000E+000	6.307626840655939E+002
-3.3982974E-002	-3.477605943140685E-003	4.000000000000000E+000	6.307726840653413E+002
-3.7973709E-002	-3.487464409197227E-003	4.000000000000000E+000	6.307826840650887E+002
-4.1975964E-002	-3.490653742898857E-003	4.000000000000000E+000	6.307926840648361E+002
-4.5978092E-002	-3.502116824239801E-003	4.000000000000000E+000	6.308026840645834E+002
-4.9978420E-002	-3.508190733360318E-003	4.000000000000000E+000	6.308126840643308E+002
-5.3972058E-002	-3.520058806613199E-003	4.000000000000000E+000	6.308226840640782E+002
-5.7977732E-002	-3.520751980617270E-003	4.000000000000000E+000	6.308326840638256E+002
-6.1967701E-002	-3.528692986668696E-003	4.000000000000000E+000	6.308426840635730E+002
-6.5976799E-002	-3.537500633191623E-003	4.000000000000000E+000	6.308526840633203E+002
-6.9967873E-002	-3.536973824218246E-003	4.000000000000000E+000	6.308626840630677E+002
-7.3978133E-002	-3.549980192232988E-003	4.000000000000000E+000	6.308726840628151E+002
-7.7973440E-002	-3.558185865808656E-003	4.000000000000000E+000	6.308826840625625E+002
-8.1977449E-002	-3.559108278834003E-003	4.000000000000000E+000	6.308926840623099E+002
-8.5975163E-002	-3.568420271379574E-003	4.000000000000000E+000	6.309026840620572E+002
-8.9970030E-002	-3.573105841162605E-003	4.000000000000000E+000	6.309126840618046E+002
-9.3966059E-002	-3.574560270389673E-003	4.000000000000000E+000	6.309226840615520E+002
-9.7971059E-002	-3.581440398508579E-003	4.000000000000000E+000	6.309326840612994E+002
-1.0197086E-001	-3.589885843388235E-003	4.000000000000000E+000	6.309426840610467E+002
-1.0596755E-001	-3.590543802193664E-003	4.000000000000000E+000	6.309526840607941E+002
-1.0997602E-001	-3.593617981959077E-003	4.000000000000000E+000	6.309626840605415E+002
-1.1397427E-001	-3.602439447279567E-003	4.000000000000000E+000	6.309726840602889E+002
-1.1796504E-001	-3.604188027566096E-003	4.000000000000000E+000	6.309826840600363E+002
-1.2197310E-001	-3.612843625664997E-003	4.000000000000000E+000	6.309926840597836E+002
-1.2597398E-001	-3.617657535284795E-003	4.000000000000000E+000	6.310026840595310E+002
-1.2996897E-001	-3.622992471598342E-003	4.000000000000000E+000	6.310126840592784E+002
-1.3397551E-001	-3.628010652289694E-003	4.000000000000000E+000	6.310226840590258E+002
-1.3797854E-001	-3.629460379781846E-003	4.000000000000000E+000	6.310326840587732E+002
-1.4197211E-001	-3.639227124819712E-003	4.000000000000000E+000	6.310426840585205E+002
-1.4596315E-001	-3.641773513691601E-003	4.000000000000000E+000	6.310526840582679E+002
-1.4997096E-001	-3.649230912556846E-003	4.000000000000000E+000	6.310626840580153E+002
-1.5397675E-001	-3.661936590477245E-003	4.000000000000000E+000	6.310726840577627E+002
-1.5796843E-001	-3.665008116578435E-003	4.000000000000000E+000	6.310826840575101E+002
-1.6196777E-001	-3.671776186161407E-003	4.000000000000000E+000	6.310926840572574E+002
-1.6596058E-001	-3.680255237761243E-003	4.000000000000000E+000	6.311026840570048E+002
-1.6995841E-001	-3.685670049778766E-003	4.000000000000000E+000	6.311126840567522E+002
-1.7394899E-001	-3.695099526850043E-003	4.000000000000000E+000	6.311226840564996E+002
-1.7795886E-001	-3.714179243421017E-003	4.000000000000000E+000	6.311326840562469E+002
-1.8195854E-001	-3.718801141066944E-003	4.000000000000000E+000	6.311426840559943E+002
-1.8595767E-001	-3.731508056939550E-003	4.000000000000000E+000	6.311526840557417E+002
-1.8996243E-001	-3.735334696845068E-003	4.000000000000000E+000	6.311626840554891E+002
-1.9396189E-001	-3.753760710433325E-003	4.000000000000000E+000	6.311726840552365E+002
-1.9788289E-001	-3.764148043201368E-003	4.000000000000000E+000	6.311824840549889E+002
-1.9983374E-001	-3.767387941479683E-003	4.000000000000000E+000	6.311873840548651E+002
-1.9998279E-001	-3.760240273550153E-003	4.000000000000000E+000	6.311875840548601E+002
-2.0004776E-001	-3.739007283002138E-003	5.000000000000000E+000	6.311879840548499E+002
-1.9817889E-001	9.311928315655455E-004	5.000000000000000E+000	6.311930840547211E+002
-1.9377738E-001	2.939058783535356E-003	5.000000000000000E+000	6.312030840544685E+002
-1.8376182E-001	3.056576684767129E-003	5.000000000000000E+000	6.312280840538369E+002
-1.7376313E-001	3.178794769619547E-003	5.000000000000000E+000	6.312530840532054E+002
-1.6977055E-001	3.199186256691161E-003	5.000000000000000E+000	6.312630840529528E+002
-1.6576594E-001	3.226026102069873E-003	5.000000000000000E+000	6.312730840527001E+002
-1.6177402E-001	3.239544644759257E-003	5.000000000000000E+000	6.312830840524475E+002
-1.5777408E-001	3.257580833391966E-003	5.000000000000000E+000	6.312930840521949E+002
-1.5377887E-001	3.267414172467210E-003	5.000000000000000E+000	6.313030840519423E+002
-1.4977513E-001	3.280958518245121E-003	5.000000000000000E+000	6.313130840516897E+002
-1.4577791E-001	3.290946234589087E-003	5.000000000000000E+000	6.313230840514370E+002
-1.4177565E-001	3.299775541489372E-003	5.000000000000000E+000	6.313330840511844E+002
-1.3179144E-001	3.315928484917310E-003	5.000000000000000E+000	6.313580840505529E+002
-1.2179912E-001	3.341853141016494E-003	5.000000000000000E+000	6.313830840499213E+002
-1.1778763E-001	3.345162568389189E-003	5.000000000000000E+000	6.313930840496687E+002
-1.1380103E-001	3.350774066626547E-003	5.000000000000000E+000	6.314030840494161E+002
-1.0979733E-001	3.347471535348936E-003	5.000000000000000E+000	6.314130840491634E+002
-1.0579398E-001	3.354540958716123E-003	5.000000000000000E+000	6.314230840489108E+002
-1.0179339E-001	3.365355126334221E-003	5.000000000000000E+000	6.314330840486582E+002
-9.7779654E-002	3.363708092634560E-003	5.000000000000000E+000	6.314430840484056E+002
-9.3795270E-002	3.369266313813839E-003	5.000000000000000E+000	6.314530840481530E+002
-8.9789353E-002	3.365371948422430E-003	5.000000000000000E+000	6.314630840479003E+002
-8.5783824E-002	3.372930812391282E-003	5.000000000000000E+000	6.314730840476477E+002
-8.1789754E-002	3.370374069042878E-003	5.000000000000000E+000	6.314830840473951E+002
-7.7778548E-002	3.379946939693762E-003	5.000000000000000E+000	6.314930840471425E+002
-7.3787488E-002	3.372529393911902E-003	5.000000000000000E+000	6.315030840468899E+002
-6.9778301E-002	3.373224751167282E-003	5.000000000000000E+000	6.315130840466372E+002
-6.5783568E-002	3.373488382962669E-003	5.000000000000000E+000	6.315230840463846E+002
-6.1785456E-002	3.376497978488442E-003	5.000000000000000E+000	6.315330840461320E+002
-5.7788253E-002	3.375112922519630E-003	5.000000000000000E+000	6.315430840458794E+002
-5.3784396E-002	3.373005941284687E-003	5.000000000000000E+000	6.315530840456267E+002
-4.9796142E-002	3.375041277677727E-003	5.000000000000000E+000	6.315630840453741E+002
-4.5792691E-002	3.375880681697011E-003	5.000000000000000E+000	6.315730840451215E+002
-4.1781712E-002	3.375281876083637E-003	5.000000000000000E+000	6.315830840448689E+002
-3.7788827E-002	3.370281614173382E-003	5.000000000000000E+000	6.315930840446163E+002
-3.3796173E-002	3.375429326158141E-003	5.000000000000000E+000	6.316030840443636E+002
-2.9789710E-002	3.371362808212931E-003	5.000000000000000E+000	6.316130840441110E+002
-2.5790587E-002	3.373903484149510E-003	5.000000000000000E+000	6.316230840438584E+002
-2.1789193E-002	3.367910081625292E-003	5.000000000000000E+000	6.316330840436058E+002
-1.7787030E-002	3.368308848537886E-003	5.000000000000000E+000	6.316430840433532E+002
-1.3792035E-002	3.366796137062048E-003	5.000000000000000E+000	6.316530840431005E+002
-9.7756702E-003	3.364784024653324E-003	5.000000000000000E+000	6.316630840428479E+002
-5.7867225E-003	3.360748008292717E-003	5.000000000000000E+000	6.316730840425953E+002
-1.7847870E-003	3.369314800869607E-003	5.000000000000000E+000	6.316830840423427E+002
2.2214733E-003	3.366891366632874E-003	5.000000000000000E+000	6.316930840420901E+002
6.2193442E-003	3.359210487249211E-003	5.000000000000000E+000	6.317030840418374E+002
1.0217995E-002	3.359908198434649E-003	5.000000000000000E+000	6.317130840415848E+002
1.4222650E-002	3.360892081404110E-003	5.000000000000000E+000	6.317230840413322E+002
1.8227270E-002	3.358907923465847E-003	5.000000000000000E+000	6.317330840410796E+002
2.2225760E-002	3.354570219972645E-003	5.000000000000000E+000	6.317430840408269E+002
2.6218096E-002	3.359995109395698E-003	5.000000000000000E+000	6.317530840405743E+002
3.0241473E-002	3.363642362645065E-003	5.000000000000000E+000	6.317630840403217E+002
3.4228612E-002	3.356500755718179E-003	5.000000000000000E+000	6.317730840400691E+002
3.8230266E-002	3.351201624939570E-003	5.000000000000000E+000	6.317830840398165E+002
4.2224325E-002	3.354395116071385E-003	5.000000000000000E+000	6.317930840395638E+002
4.6233229E-002	3.353261192842221E-003	5.000000000000000E+000	6.318030840393112E+002
5.0241008E-002	3.350650886845065E-003	5.000000000000000E+000	6.318130840390586E+002
5.4229859E-002	3.355454479658113E-003	5.000000000000000E+000	6.318230840388060E+002
5.8234286E-002	3.350737338993860E-003	5.000000000000000E+000	6.318330840385534E+002
6.2235974E-002	3.349524046398641E-003	5.000000000000000E+000	6.318430840383007E+002
6.6238299E-002	3.352321208082277E-003	5.000000000000000E+000	6.318530840380481E+002
7.0228472E-002	3.349440565374139E-003	5.000000000000000E+000	6.318630840377955E+002
7.4229233E-002	3.342984687671070E-003	5.000000000000000E+000	6.318730840375429E+002
7.8231499E-002	3.351490536901227E-003	5.000000000000000E+000	6.318830840372902E+002
8.2240410E-002	3.346600701568586E-003	5.000000000000000E+000	6.318930840370376E+002
8.6239390E-002	3.345373727565229E-003	5.000000000000000E+000	6.319030840367850E+002
9.0236947E-002	3.337464436058091E-003	5.000000000000000E+000	6.319130840365324E+002
9.4239660E-002	3.342871659585925E-003	5.000000000000000E+000	6.319230840362798E+002
9.8240383E-002	3.340429590211091E-003	5.000000000000000E+000	6.319330840360271E+002
1.0223318E-001	3.343373249821077E-003	5.000000000000000E+000	6.319430840357745E+002
1.0623303E-001	3.337691443791813E-003	5.000000000000000E+000	6.319530840355219E+002
1.1023454E-001	3.340977547776132E-003	5.000000000000000E+000	6.319630840352693E+002
1.1423077E-001	3.333620621774308E-003	5.000000000000000E+000	6.319730840350167E+002
1.1823116E-001	3.339463320070526E-003	5.000000000000000E+000	6.319830840347640E+002
1.2223402E-001	3.337051049593561E-003	5.000000000000000E+000	6.319930840345114E+002
1.2623598E-001	3.331796861718389E-003	5.000000000000000E+000	6.320030840342588E+002
1.3023004E-001	3.336536544747110E-003	5.000000000000000E+000	6.320130840340062E+002
1.3423754E-001	3.330759819544615E-003	5.000000000000000E+000	6.320230840337535E+002
1.3824183E-001	3.330795709727538E-003	5.000000000000000E+000	6.320330840335009E+002
1.4223205E-001	3.329625720439558E-003	5.000000000000000E+000	6.320430840332483E+002
1.4622782E-001	3.331293340282621E-003	5.000000000000000E+000	6.320530840329957E+002
1.5022618E-001	3.329124364083766E-003	5.000000000000000E+000	6.320630840327431E+002
1.5422352E-001	3.331447732855019E-003	5.000000000000000E+000	6.320730840324904E+002
1.5823077E-001	3.330884925004784E-003	5.000000000000000E+000	6.320830840322378E+002
1.6223752E-001	3.333359878571210E-003	5.000000000000000E+000	6.320930840319852E+002
1.6624221E-001	3.328305842285578E-003	5.000000000000000E+000	6.321030840317326E+002
1.7022514E-001	3.325780287969822E-003	5.000000000000000E+000	6.321130840314800E+002
1.7422511E-001	3.332910403124941E-003	5.000000000000000E+000	6.321230840312273E+002
1.7822911E-001	3.328982865297134E-003	5.000000000000000E+000	6.321330840309747E+002
1.8223277E-001	3.327442858010635E-003	5.000000000000000E+000	6.321430840307221E+002
1.8623145E-001	3.325801014880780E-003	5.000000000000000E+000	6.321530840304695E+002
1.9022851E-001	3.331122118002662E-003	5.000000000000000E+000	6.321630840302169E+002
1.9422683E-001	3.325395670474678E-003	5.000000000000000E+000	6.321730840299642E+002
1.9810493E-001	3.323064302163503E-003	5.000000000000000E+000	6.321827840297192E+002
2.0006014E-001	3.318344010040164E-003	5.000000000000000E+000	6.321875840295979E+002
2.0007543E-001	3.317235736176372E-003	5.000000000000000E+000	6.321877840295929E+002
2.0012511E-001	3.291434608399868E-003	5.000000000000000E+000	6.321879840295878E+002
1.9840457E-001	-9.193487128297036E-004	5.000000000000000E+000	6.321930840294590E+002
1.9403227E-001	-2.553645291012476E-003	5.000000000000000E+000	6.322030840292064E+002
1.9004044E-001	-2.608313878690902E-003	5.000000000000000E+000	6.322130840289537E+002
1.8604161E-001	-2.680307673797070E-003	5.000000000000000E+000	6.322230840287011E+002
1.8204498E-001	-2.727573124753226E-003	5.000000000000000E+000	6.322330840284485E+002
1.7805099E-001	-2.770831157472342E-003	5.000000000000000E+000	6.322430840281959E+002
1.7404805E-001	-2.803133331604953E-003	5.000000000000000E+000	6.322530840279433E+002
1.7004795E-001	-2.831562265133175E-003	5.000000000000000E+000	6.322630840276906E+002
1.6000083E-001	-2.900939149804688E-003	5.000000000000000E+000	6.322880840270591E+002
1.5000784E-001	-2.956645087653328E-003	5.000000000000000E+000	6.323130840264275E+002
1.4602143E-001	-2.970206529722887E-003	5.000000000000000E+000	6.323230840261749E+002
1.4202040E-001	-2.989165091567318E-003	5.000000000000000E+000	6.323330840259223E+002
1.3802837E-001	-3.003009797543640E-003	5.000000000000000E+000	6.323430840256697E+002
1.3402839E-001	-3.020702843913342E-003	5.000000000000000E+000	6.323530840254170E+002
1.3002612E-001	-3.034598804844024E-003	5.000000000000000E+000	6.323630840251644E+002
1.2601550E-001	-3.051545323095102E-003	5.000000000000000E+000	6.323730840249118E+002
1.2201997E-001	-3.060348986736575E-003	5.000000000000000E+000	6.323830840246592E+002
1.1802571E-001	-3.073442747169152E-003	5.000000000000000E+000	6.323930840244066E+002
1.0804000E-001	-3.089050705354209E-003	5.000000000000000E+000	6.324180840237750E+002
9.8057754E-002	-3.128082186173498E-003	5.000000000000000E+000	6.324430840231435E+002
9.4044320E-002	-3.143078587517965E-003	5.000000000000000E+000	6.324530840228908E+002
9.0052679E-002	-3.151888668851022E-003	5.000000000000000E+000	6.324630840226382E+002
8.6052500E-002	-3.162836063819077E-003	5.000000000000000E+000	6.324730840223856E+002
8.2050063E-002	-3.178377114553006E-003	5.000000000000000E+000	6.324830840221330E+002
7.8054428E-002	-3.186409530984230E-003	5.000000000000000E+000	6.324930840218804E+002
7.4044101E-002	-3.205273870820272E-003	5.000000000000000E+000	6.325030840216277E+002
7.0052244E-002	-3.210334530027757E-003	5.000000000000000E+000	6.325130840213751E+002
6.6045046E-002	-3.223169050531327E-003	5.000000000000000E+000	6.325230840211225E+002
6.2042326E-002	-3.238236344973909E-003	5.000000000000000E+000	6.325330840208699E+002
5.8052395E-002	-3.244632939752058E-003	5.000000000000000E+000	6.325430840206172E+002
5.4053012E-002	-3.259226573316801E-003	5.000000000000000E+000	6.325530840203646E+002
5.0046559E-002	-3.269976917617493E-003	5.000000000000000E+000	6.325630840201120E+002
4.6057194E-002	-3.276772524788266E-003	5.000000000000000E+000	6.325730840198594E+002
4.2043768E-002	-3.295565597621702E-003	5.000000000000000E+000	6.325830840196068E+002
3.8042605E-002	-3.308729735663828E-003	5.000000000000000E+000	6.325930840193541E+002
3.4041904E-002	-3.311194302605878E-003	5.000000000000000E+000	6.326030840191015E+002
3.0051511E-002	-3.325069298996942E-003	5.000000000000000E+000	6.326130840188489E+002
2.6040731E-002	-3.344431383789467E-003	5.000000000000000E+000	6.326230840185963E+002
2.2038570E-002	-3.350924807624042E-003	5.000000000000000E+000	6.326330840183437E+002
1.8042687E-002	-3.356835656743370E-003	5.000000000000000E+000	6.326430840180910E+002
1.4035299E-002	-3.368453705225295E-003	5.000000000000000E+000	6.326530840178384E+002
1.0044960E-002	-3.372718757335073E-003	5.000000000000000E+000	6.326630840175858E+002
6.0396800E-003	-3.389459806654403E-003	5.000000000000000E+000	6.326730840173332E+002
2.0459041E-003	-3.394012506639496E-003	5.000000000000000E+000	6.326830840170805E+002
-1.9581693E-003	-3.413947593214409E-003	5.000000000000000E+000	6.326930840168279E+002
-5.9750783E-003	-3.412189245103243E-003	5.000000000000000E+000	6.327030840165753E+002
-9.9598551E-003	-3.421496022522702E-003	5.000000000000000E+000	6.327130840163227E+002
-1.3964443E-002	-3.434757644624475E-003	5.000000000000000E+000	6.327230840160701E+002
-1.7968098E-002	-3.442602322639668E-003	5.000000000000000E+000	6.327330840158174E+002
-2.1970224E-002	-3.447650409456451E-003	5.000000000000000E+000	6.327430840155648E+002
-2.5970364E-002	-3.458213731976498E-003	5.000000000000000E+000	6.327530840153122E+002
-2.9973155E-002	-3.469192567229801E-003	5.000000000000000E+000	6.327630840150596E+002
-3.3977237E-002	-3.472989530072634E-003	5.000000000000000E+000	6.327730840148070E+002
-3.7964430E-002	-3.479567754088822E-003	5.000000000000000E+000	6.327830840145543E+002
-4.1966870E-002	-3.494175261540458E-003	5.000000000000000E+000	6.327930840143017E+002
-4.5973480E-002	-3.496343255262307E-003	5.000000000000000E+000	6.328030840140491E+002
-4.9983378E-002	-3.506319138124291E-003	5.000000000000000E+000	6.328130840137965E+002
-5.3973377E-002	-3.514531317473360E-003	5.000000000000000E+000	6.328230840135438E+002
-5.7962373E-002	-3.520087327448257E-003	5.000000000000000E+000	6.328330840132912E+002
-6.1966870E-002	-3.523258988405640E-003	5.000000000000000E+000	6.328430840130386E+002
-6.5965615E-002	-3.534669371451887E-003	5.000000000000000E+000	6.328530840127860E+002
-6.9960177E-002	-3.537089529447437E-003	5.000000000000000E+000	6.328630840125334E+002
-7.3976658E-002	-3.543877495906789E-003	5.000000000000000E+000	6.328730840122807E+002
-7.7962041E-002	-3.555400613521997E-003	5.000000000000000E+000	6.328830840120281E+002
-8.1974223E-002	-3.555867802593348E-003	5.000000000000000E+000	6.328930840117755E+002
-8.5975207E-002	-3.563475945685776E-003	5.000000000000000E+000	6.329030840115229E+002
-8.9973822E-002	-3.566424488985351E-003	5.000000000000000E+000	6.329130840112703E+002
-9.3974471E-002	-3.571796078362291E-003	5.000000000000000E+000	6.329230840110176E+002
-9.7973436E-002	-3.576818578151179E-003	5.000000000000000E+000	6.329330840107650E+002
-1.0197282E-001	-3.581454140268212E-003	5.000000000000000E+000	6.329430840105124E+002
-1.0597253E-001	-3.590497678524828E-003	5.000000000000000E+000	6.329530840102598E+002
-1.0997112E-001	-3.590530092860332E-003	5.000000000000000E+000	6.329630840100072E+002
-1.1398734E-001	-3.596340896291003E-003	5.000000000000000E+000	6.329730840097545E+002
-1.1796725E-001	-3.597073322982036E-003	5.000000000000000E+000	6.329830840095019E+002
-1.2198327E-001	-3.608504898600526E-003	5.000000000000000E+000	6.329930840092493E+002
-1.2596838E-001	-3.610795976616177E-003	5.000000000000000E+000	6.330030840089967E+002
-1.2998368E-001	-3.620037386396237E-003	5.000000000000000E+000	6.330130840087440E+002
-1.3397664E-001	-3.621699818017479E-003	5.000000000000000E+000	6.330230840084914E+002
-1.3797179E-001	-3.628300390657188E-003	5.000000000000000E+000	6.330330840082388E+002
-1.4197333E-001	-3.626919692522962E-003	5.000000000000000E+000	6.330430840079862E+002
-1.4596272E-001	-3.639866032931496E-003	5.000000000000000E+000	6.330530840077336E+002
-1.4997406E-001	-3.650956923296173E-003	5.000000000000000E+000	6.330630840074809E+002
-1.5396670E-001	-3.650111073817880E-003	5.000000000000000E+000	6.330730840072283E+002
-1.5796445E-001	-3.656828910523588E-003	5.000000000000000E+000	6.330830840069757E+002
-1.6197021E-001	-3.667957447472545E-003	5.000000000000000E+000	6.330930840067231E+002
-1.6596262E-001	-3.675756178437212E-003	5.000000000000000E+000	6.331030840064705E+002
-1.6996437E-001	-3.683494786382246E-003	5.000000000000000E+000	6.331130840062178E+002
-1.7396504E-001	-3.694347095711667E-003	5.000000000000000E+000	6.331230840059652E+002
-1.7795140E-001	-3.699358835695638E-003	5.000000000000000E+000	6.331330840057126E+002
-1.8196681E-001	-3.717754802251769E-003	5.000000000000000E+000	6.331430840054600E+002
-1.8596274E-001	-3.721548460130050E-003	5.000000000000000E+000	6.331530840052073E+002
-1.8996409E-001	-3.733856392890193E-003	5.000000000000000E+000	6.331630840049547E+002
-1.9396599E-001	-3.746370385243232E-003	5.000000000000000E+000	6.331730840047021E+002
-1.9787663E-001	-3.753003622874673E-003	5.000000000000000E+000	6.331828840044545E+002
-1.9985665E-001	-3.770063398405910E-003	5.000000000000000E+000	6.331877840043308E+002
-1.9995603E-001	-3.765629604458809E-003	5.000000000000000E+000	6.331879840043257E+002
-2.0009361E-001	-3.741701832041144E-003	5.000000000000000E+000	6.331883840043156E+002
-1.9817871E-001	9.358619122455843E-004	5.000000000000000E+000	6.331934840041868E+002
-1.9378148E-001	2.942567520788066E-003	5.000000000000000E+000	6.332034840039341E+002
-1.8979524E-001	3.009337541271313E-003	5.000000000000000E+000	6.332134840036815E+002
-1.8578242E-001	3.070708325956708E-003	5.000000000000000E+000	6.332234840034289E+002
-1.7578310E-001	3.160980352283838E-003	5.000000000000000E+000	6.332484840027973E+002
-1.6576739E-001	3.220933650519175E-003	5.000000000000000E+000	6.332734840021658E+002
-1.6178185E-001	3.239746324596879E-003	5.000000000000000E+000	6.332834840019132E+002
-1.5777817E-001	3.257139019482644E-003	5.000000000000000E+000	6.332934840016605E+002
-1.5378748E-001	3.271562871499843E-003	5.000000000000000E+000	6.333034840014079E+002
-1.4977549E-001	3.285197334291171E-003	5.000000000000000E+000	6.333134840011553E+002
-1.4577320E-001	3.290173978554384E-003	5.000000000000000E+000	6.333234840009027E+002
-1.4177664E-001	3.297801988797561E-003	5.000000000000000E+000	6.333334840006501E+002
-1.3777651E-001	3.308733526447061E-003	5.000000000000000E+000	6.333434840003974E+002
-1.3377179E-001	3.320149991321554E-003	5.000000000000000E+000	6.333534840001448E+002
-1.2375903E-001	3.324140663162389E-003	5.000000000000000E+000	6.333784839995133E+002
-1.1379992E-001	3.346712198677167E-003	5.000000000000000E+000	6.334034839988817E+002
-1.0980566E-001	3.349764165723586E-003	5.000000000000000E+000	6.334134839986291E+002
-1.0580762E-001	3.360161419290603E-003	5.000000000000000E+000	6.334234839983765E+002
-1.0179941E-001	3.360623830452172E-003	5.000000000000000E+000	6.334334839981238E+002
-9.7796239E-002	3.360913290328699E-003	5.000000000000000E+000	6.334434839978712E+002
-9.3797617E-002	3.366354216834663E-003	5.000000000000000E+000	6.334534839976186E+002
-8.9804813E-002	3.366763380153320E-003	5.000000000000000E+000	6.334634839973660E+002
-8.5799448E-002	3.368595918215922E-003	5.000000000000000E+000	6.334734839971134E+002
-8.1805572E-002	3.368414465596169E-003	5.000000000000000E+000	6.334834839968607E+002
-7.7804409E-002	3.374158504635627E-003	5.000000000000000E+000	6.334934839966081E+002
-7.3803991E-002	3.370236255176115E-003	5.000000000000000E+000	6.335034839963555E+002
-6.9788940E-002	3.376526504353581E-003	5.000000000000000E+000	6.335134839961029E+002
-6.5796010E-002	3.373458852746258E-003	5.000000000000000E+000	6.335234839958503E+002
-6.1787561E-002	3.371838629419144E-003	5.000000000000000E+000	6.335334839955976E+002
-5.7785545E-002	3.379901789768935E-003	5.000000000000000E+000	6.335434839953450E+002
-5.3792749E-002	3.368712123630088E-003	5.000000000000000E+000	6.335534839950924E+002
-4.9788199E-002	3.374558752883061E-003	5.000000000000000E+000	6.335634839948398E+002
-4.5797218E-002	3.374755318390640E-003	5.000000000000000E+000	6.335734839945872E+002
-4.1789319E-002	3.375742322291205E-003	5.000000000000000E+000	6.335834839943345E+002
-3.7797604E-002	3.368329499812287E-003	5.000000000000000E+000	6.335934839940819E+002
-3.3792354E-002	3.379214885069620E-003	5.000000000000000E+000	6.336034839938293E+002
-2.9801335E-002	3.362407262584952E-003	5.000000000000000E+000	6.336134839935767E+002
-2.5800060E-002	3.376991374297006E-003	5.000000000000000E+000	6.336234839933240E+002
-2.1788456E-002	3.366347801982916E-003	5.000000000000000E+000	6.336334839930714E+002
-1.7792253E-002	3.367355229078869E-003	5.000000000000000E+000	6.336434839928188E+002
-1.3796052E-002	3.360690957889573E-003	5.000000000000000E+000	6.336534839925662E+002
-9.7880727E-003	3.362290153476468E-003	5.000000000000000E+000	6.336634839923136E+002
-5.7915184E-003	3.364371000260491E-003	5.000000000000000E+000	6.336734839920609E+002
-1.7888817E-003	3.363245770594159E-003	5.000000000000000E+000	6.336834839918083E+002
2.2148043E-003	3.361236679164908E-003	5.000000000000000E+000	6.336934839915557E+002
6.2179780E-003	3.361799114187269E-003	5.000000000000000E+000	6.337034839913031E+002
1.0224585E-002	3.357553546776443E-003	5.000000000000000E+000	6.337134839910505E+002
1.4214501E-002	3.359237802279903E-003	5.000000000000000E+000	6.337234839907978E+002
1.8219588E-002	3.354194758555556E-003	5.000000000000000E+000	6.337334839905452E+002
2.2213517E-002	3.356385810408903E-003	5.000000000000000E+000	6.337434839902926E+002
2.6221799E-002	3.358270524363558E-003	5.000000000000000E+000	6.337534839900400E+002
3.0227663E-002	3.358641023048552E-003	5.000000000000000E+000	6.337634839897873E+002
3.4222294E-002	3.356275473750586E-003	5.000000000000000E+000	6.337734839895347E+002
3.8226329E-002	3.351571352103941E-003	5.000000000000000E+000	6.337834839892821E+002
4.2221434E-002	3.350228859020810E-003	5.000000000000000E+000	6.337934839890295E+002
4.6222229E-002	3.355920903779459E-003	5.000000000000000E+000	6.338034839887769E+002
5.0228100E-002	3.349369077930514E-003	5.000000000000000E+000	6.338134839885242E+002
5.4233063E-002	3.349944054662084E-003	5.000000000000000E+000	6.338234839882716E+002
5.8232497E-002	3.347740463196937E-003	5.000000000000000E+000	6.338334839880190E+002
6.2226970E-002	3.347707152294571E-003	5.000000000000000E+000	6.338434839877664E+002
6.6225335E-002	3.348091068151690E-003	5.000000000000000E+000	6.338534839875138E+002
7.0230618E-002	3.348376077388027E-003	5.000000000000000E+000	6.338634839872611E+002
7.4220777E-002	3.342645724758940E-003	5.000000000000000E+000	6.338734839870085E+002
7.8234509E-002	3.351617658497660E-003	5.000000000000000E+000	6.338834839867559E+002
8.2229979E-002	3.340832554107595E-003	5.000000000000000E+000	6.338934839865033E+002
8.6230800E-002	3.345495395683025E-003	5.000000000000000E+000	6.339034839862506E+002
9.0224236E-002	3.337462966602325E-003	5.000000000000000E+000	6.339134839859980E+002
9.4227508E-002	3.341908647793650E-003	5.000000000000000E+000	6.339234839857454E+002
9.8227240E-002	3.337122376975414E-003	5.000000000000000E+000	6.339334839854928E+002
1.0221983E-001	3.340589512928857E-003	5.000000000000000E+000	6.339434839852402E+002
1.0623195E-001	3.342903632510247E-003	5.000000000000000E+000	6.339534839849875E+002
1.1022703E-001	3.333405526305205E-003	5.000000000000000E+000	6.339634839847349E+002
1.1422218E-001	3.333600375549882E-003	5.000000000000000E+000	6.339734839844823E+002
1.1822101E-001	3.335150496027693E-003	5.000000000000000E+000	6.339834839842297E+002
1.2221173E-001	3.331942817530242E-003	5.000000000000000E+000	6.339934839839771E+002
1.2622477E-001	3.331939235411094E-003	5.000000000000000E+000	6.340034839837244E+002
1.3021791E-001	3.334126202324634E-003	5.000000000000000E+000	6.340134839834718E+002
1.3422634E-001	3.329229231495673E-003	5.000000000000000E+000	6.340234839832192E+002
1.3822174E-001	3.328385386525134E-003	5.000000000000000E+000	6.340334839829666E+002
1.4222454E-001	3.330333937448887E-003	5.000000000000000E+000	6.340434839827140E+002
1.4621158E-001	3.327540500795673E-003	5.000000000000000E+000	6.340534839824613E+002
1.5021881E-001	3.329869320112994E-003	5.000000000000000E+000	6.340634839822087E+002
1.5421604E-001	3.332282957783247E-003	5.000000000000000E+000	6.340734839819561E+002
1.5822203E-001	3.330189598848551E-003	5.000000000000000E+000	6.340834839817035E+002
1.6222125E-001	3.326321696996688E-003	5.000000000000000E+000	6.340934839814508E+002
1.6621786E-001	3.328293674452920E-003	5.000000000000000E+000	6.341034839811982E+002
1.7021769E-001	3.328866688884706E-003	5.000000000000000E+000	6.341134839809456E+002
1.7421868E-001	3.326289292656381E-003	5.000000000000000E+000	6.341234839806930E+002
1.7822082E-001	3.331276951429381E-003	5.000000000000000E+000	6.341334839804404E+002
1.8222043E-001	3.327943289401024E-003	5.000000000000000E+000	6.341434839801877E+002
1.8622595E-001	3.327110618742246E-003	5.000000000000000E+000	6.341534839799351E+002
1.9021975E-001	3.325597596070732E-003	5.000000000000000E+000	6.341634839796825E+002
1.9421731E-001	3.328281565421906E-003	5.000000000000000E+000	6.341734839794299E+002
1.9821537E-001	3.319981633894187E-003	5.000000000000000E+000	6.341834839791773E+002
2.0221831E-001	3.323431432335752E-003	5.000000000000000E+000	6.341934839789246E+002
2.0622116E-001	3.322441055128647E-003	5.000000000000000E+000	6.342034839786720E+002
2.1021368E-001	3.319310777108234E-003	5.000000000000000E+000	6.342134839784194E+002
2.1421663E-001	3.316084094041473E-003	5.000000000000000E+000	6.342234839781668E+002
2.1821116E-001	3.315759943958232E-003	5.000000000000000E+000	6.342334839779141E+002
2.2221738E-001	3.313507482540015E-003	5.000000000000000E+000	6.342434839776615E+002
2.2621679E-001	3.309799752097067E-003	5.000000000000000E+000	6.342534839774089E+002
2.3020753E-001	3.308593912736683E-003	5.000000000000000E+000	6.342634839771563E+002
2.3422368E-001	3.303269118337768E-003	5.000000000000000E+000	6.342734839769037E+002
2.3821779E-001	3.301135590446619E-003	5.000000000000000E+000	6.342834839766510E+002
2.4222334E-001	3.292215418956169E-003	5.000000000000000E+000	6.342934839763984E+002
2.4622288E-001	3.296049529497551E-003	5.000000000000000E+000	6.343034839761458E+002
2.5022531E-001	3.290385461853929E-003	5.000000000000000E+000	6.343134839758932E+002
2.5251663E-001	3.289064886075721E-003	5.000000000000000E+000	6.343191839757492E+002
2.5281194E-001	3.290594089776278E-003	5.000000000000000E+000	6.343199839757290E+002
2.5291130E-001	3.284898819401860E-003	5.000000000000000E+000	6.343201839757239E+002